normalized_time,Participant_1493663240_A01890.p,Participant_1496443804_A01890.p
0.0,-7.32,143.0
0.02,-12.41,169.3
0.03,-17.33,198.19
0.05,-21.77,229.13
0.06,-25.68,261.93
0.08,-29.13,296.49
0.09,-32.3,331.72
0.11,-35.28,364.69
0.13,-38.13,390.75
0.14,-40.88,404.82
0.16,-43.63,403.48
0.17,-46.36,386.46
0.19,-48.76,356.63
0.2,-50.09,318.48
0.22,-49.25,276.34
0.23,-45.28,233.38
0.25,-37.76,192.02
0.27,-27.21,155.04
0.28,-15.12,126.19
0.3,-3.42,109.43
0.31,6.11,106.84
0.33,12.43,116.58
0.34,15.3,132.23
0.36,15.2,144.18
0.38,12.77,142.72
0.39,8.7,121.22
0.41,3.63,78.34
0.42,-1.61,18.29
0.44,-5.87,-50.54
0.45,-7.77,-118.21
0.47,-6.02,-175.78
0.48,0.14,-217.46
0.5,10.72,-241.57
0.52,24.95,-250.23
0.53,41.53,-248.01
0.55,58.96,-239.96
0.56,75.79,-229.93
0.58,90.92,-219.68
0.59,103.65,-209.23
0.61,113.84,-197.8
0.63,121.93,-184.91
0.64,128.81,-170.92
0.66,135.41,-156.84
0.67,142.28,-143.64
0.69,149.27,-131.63
0.7,155.5,-120.4
0.72,159.75,-109.32
0.73,160.85,-98.23
0.75,158.06,-87.8
0.77,151.2,-79.3
0.78,140.48,-73.82
0.8,126.32,-71.47
0.81,109.21,-71.24
0.83,89.76,-71.52
0.84,68.83,-71.01
0.86,47.48,-69.43
0.88,26.8,-67.57
0.89,7.6,-66.51
0.91,-9.99,-66.64
0.92,-26.46,-67.02
0.94,-42.71,-65.55
0.95,-59.5,-59.8
0.97,-76.82,-48.08
0.98,-93.78,-30.19
1.0,-108.69,-7.38
1.02,-119.74,18.12
1.03,-125.54,43.75
1.05,-125.66,67.14
1.06,-120.67,86.35
1.08,-111.92,100.0
1.09,-101.15,107.36
1.11,-90.12,108.64
1.13,-80.29,104.92
1.14,-72.51,97.99
1.16,-67.07,89.73
1.17,-63.6,81.56
1.19,-61.28,74.14
1.2,-59.2,67.45
1.22,-56.57,61.15
1.23,-52.94,54.88
1.25,-48.06,48.49
1.27,-41.8,41.93
1.28,-34.04,35.26
1.3,-24.79,28.55
1.31,-14.3,21.88
1.33,-3.17,15.2
1.34,7.72,8.24
1.36,17.53,0.54
1.38,25.76,-8.33
1.39,32.38,-18.14
1.41,37.75,-27.68
1.42,42.37,-34.67
1.44,46.55,-36.53
1.45,50.36,-31.31
1.47,53.58,-18.65
1.48,55.87,0.0
1.5,56.89,21.96
1.52,56.41,44.23
1.53,54.24,64.46
1.55,50.39,81.25
1.56,44.92,94.0
1.58,38.07,102.51
1.59,30.14,106.65
1.61,21.41,106.48
1.63,12.07,102.35
1.64,2.19,95.12
1.66,-8.31,86.01
1.67,-19.52,76.29
1.69,-31.43,66.94
1.7,-43.88,58.52
1.72,-56.54,51.13
1.73,-69.05,44.6
1.75,-80.96,38.56
1.77,-91.8,32.54
1.78,-100.89,26.05
1.8,-107.43,18.57
1.81,-110.58,9.72
1.83,-109.69,-0.72
1.84,-104.61,-12.61
1.86,-95.78,-25.39
1.88,-84.14,-37.9
1.89,-70.86,-48.52
1.91,-57.09,-55.4
1.92,-43.71,-56.98
1.94,-31.35,-52.57
1.95,-20.46,-42.68
1.97,-11.35,-28.99
1.98,-4.25,-13.74
2.0,0.79,0.95
2.02,3.98,13.67
2.03,5.65,23.83
2.05,6.21,31.29
2.06,6.0,35.85
2.08,5.3,37.05
2.09,4.35,34.3
2.11,3.3,27.5
2.13,2.31,17.42
2.14,1.51,5.76
2.16,1.02,-5.34
2.17,1.02,-14.16
2.19,1.86,-20.02
2.2,4.09,-23.41
2.22,8.18,-25.58
2.23,14.33,-27.74
2.25,22.23,-30.41
2.27,30.97,-33.26
2.28,39.3,-35.37
2.3,45.9,-35.92
2.31,49.73,-34.63
2.33,50.23,-31.89
2.34,47.28,-28.39
2.36,41.07,-24.46
2.38,32.06,-19.6
2.39,20.97,-12.32
2.41,8.8,-0.55
2.42,-3.22,17.75
2.44,-13.87,43.87
2.45,-22.24,78.06
2.47,-27.96,119.44
2.48,-31.28,166.42
2.5,-32.86,216.91
2.52,-33.58,268.33
2.53,-34.23,317.43
2.55,-35.41,360.1
2.56,-37.29,392.01
2.58,-39.5,409.48
2.59,-41.07,411.02
2.61,-40.63,397.99
2.63,-36.86,374.29
2.64,-28.86,344.86
2.66,-16.7,313.75
2.67,-1.39,283.03
2.69,15.31,253.0
2.7,31.39,223.69
2.72,44.98,196.08
2.73,54.63,172.13
2.75,59.49,153.24
2.77,59.21,138.3
2.78,54.24,123.02
2.8,45.61,101.7
2.81,34.87,70.61
2.83,23.79,30.93
2.84,13.74,-10.92
2.86,5.43,-46.38
2.88,-1.24,-69.14
2.89,-6.83,-78.67
2.91,-11.97,-80.31
2.92,-16.85,-82.34
2.94,-21.22,-91.54
2.95,-24.4,-109.94
2.97,-25.59,-134.3
2.98,-24.23,-157.97
3.0,-20.12,-173.31
3.02,-13.54,-173.67
3.03,-5.26,-154.54
3.05,3.55,-114.33
3.06,11.62,-55.41
3.08,17.84,15.12
3.09,21.49,86.13
3.11,22.42,145.1
3.13,20.93,182.22
3.14,17.63,193.99
3.16,13.2,184.33
3.17,8.17,162.47
3.19,2.94,138.48
3.2,-2.17,119.17
3.22,-6.87,106.1
3.23,-10.81,96.49
3.25,-13.67,85.87
3.27,-15.36,70.83
3.28,-16.0,49.94
3.3,-15.99,23.07
3.31,-15.93,-9.84
3.33,-16.28,-49.26
3.34,-17.24,-95.47
3.36,-18.65,-147.49
3.38,-19.95,-202.13
3.39,-20.4,-254.1
3.41,-19.33,-296.72
3.42,-16.4,-323.78
3.44,-11.74,-331.26
3.45,-5.92,-318.69
3.47,0.24,-289.72
3.48,5.97,-251.38
3.5,10.73,-212.08
3.52,14.31,-178.87
3.53,16.76,-155.43
3.55,18.13,-141.27
3.56,18.42,-133.15
3.58,17.56,-127.57
3.59,15.51,-123.03
3.61,12.45,-120.67
3.63,8.83,-122.9
3.64,5.26,-131.21
3.66,2.28,-144.54
3.67,0.09,-159.34
3.69,-1.54,-171.45
3.7,-3.12,-178.21
3.72,-5.25,-179.6
3.73,-8.27,-177.84
3.75,-12.15,-175.96
3.77,-16.39,-176.16
3.78,-20.27,-178.96
3.8,-23.07,-183.45
3.81,-24.32,-188.14
3.83,-23.91,-191.82
3.84,-22.04,-194.06
3.86,-19.19,-195.17
3.88,-15.98,-196.04
3.89,-12.96,-197.73
3.91,-10.61,-201.04
3.92,-9.21,-206.1
3.94,-8.88,-212.16
3.95,-9.51,-217.5
3.97,-10.83,-220.0
3.98,-12.45,-217.9
4.0,-13.92,-210.81
4.02,-14.81,-200.06
4.03,-14.84,-188.41
4.05,-13.9,-179.03
4.06,-12.19,-174.11
4.08,-10.12,-173.91
4.09,-8.2,-176.54
4.11,-6.97,-178.63
4.13,-6.7,-176.5
4.14,-7.34,-167.37
4.16,-8.44,-150.1
4.17,-9.22,-125.15
4.19,-8.84,-93.93
4.2,-6.55,-58.14
4.22,-2.03,-19.32
4.23,4.57,21.15
4.25,12.57,61.77
4.27,20.92,100.82
4.28,28.39,136.45
4.3,33.83,167.3
4.31,36.44,192.96
4.33,35.91,214.3
4.34,32.49,233.19
4.36,26.91,251.94
4.38,20.13,272.65
4.39,13.16,296.78
4.41,6.74,325.28
4.42,1.35,358.45
4.44,-2.91,395.47
4.45,-6.11,433.54
4.47,-8.42,467.44
4.48,-9.95,490.12
4.5,-10.75,494.57
4.52,-10.82,476.45
4.53,-10.23,436.15
4.55,-9.15,379.24
4.56,-7.81,314.72
4.58,-6.39,251.83
4.59,-4.88,196.58
4.61,-3.07,150.05
4.63,-0.59,109.1
4.64,2.88,69.05
4.66,7.41,26.77
4.67,12.8,-17.55
4.69,18.59,-60.74
4.7,24.35,-98.89
4.72,29.79,-129.95
4.73,34.92,-154.96
4.75,39.94,-177.22
4.77,45.13,-199.75
4.78,50.66,-222.84
4.8,56.5,-243.19
4.81,62.48,-255.46
4.83,68.37,-255.29
4.84,73.99,-241.8
4.86,79.32,-218.01
4.88,84.47,-189.07
4.89,89.67,-159.37
4.91,95.14,-130.54
4.92,101.0,-101.27
4.94,107.16,-69.14
4.95,113.36,-32.81
4.97,119.23,6.68
4.98,124.26,46.09
5.0,127.93,81.64
5.02,129.58,110.78
5.03,128.38,133.2
5.05,123.53,150.55
5.06,114.38,165.27
5.08,100.81,179.57
5.09,83.38,194.51
5.11,63.2,210.05
5.13,41.66,225.38
5.14,20.06,239.67
5.16,-0.73,252.37
5.17,-20.33,263.19
5.19,-38.64,271.78
5.2,-55.64,277.47
5.22,-71.13,279.29
5.23,-84.8,276.33
5.25,-96.29,268.18
5.27,-105.34,255.0
5.28,-111.98,237.23
5.3,-116.46,215.01
5.31,-119.25,188.05
5.33,-120.78,155.99
5.34,-121.35,119.23
5.36,-121.03,79.7
5.38,-119.66,40.65
5.39,-116.96,5.83
5.41,-112.73,-21.99
5.42,-106.91,-42.1
5.44,-99.65,-55.95
5.45,-91.23,-66.22
5.47,-82.07,-75.49
5.48,-72.61,-85.19
5.5,-63.32,-95.35
5.52,-54.59,-105.1
5.53,-46.75,-113.51
5.55,-40.07,-120.09
5.56,-34.77,-124.91
5.58,-30.95,-128.34
5.59,-28.61,-130.69
5.61,-27.52,-132.03
5.63,-27.25,-132.29
5.64,-27.14,-131.41
5.66,-26.52,-129.47
5.67,-24.95,-126.71
5.69,-22.43,-123.34
5.7,-19.44,-119.47
5.72,-16.74,-115.03
5.73,-15.12,-109.84
5.75,-15.06,-103.68
5.77,-16.52,-96.32
5.78,-19.1,-87.52
5.8,-22.24,-77.1
5.81,-25.42,-64.91
5.83,-28.44,-50.97
5.84,-31.34,-35.47
5.86,-34.24,-18.8
5.88,-37.11,-1.5
5.89,-39.66,15.78
5.91,-41.42,32.51
5.92,-41.87,48.36
5.94,-40.78,63.22
5.95,-38.26,77.11
5.97,-34.84,89.87
5.98,-31.19,100.89
6.0,-27.75,108.96
6.02,-24.67,112.5
6.03,-21.7,110.08
6.05,-18.51,101.09
6.06,-14.93,86.24
6.08,-11.11,67.57
6.09,-7.46,47.99
6.11,-4.5,30.36
6.13,-2.64,16.56
6.14,-2.01,6.8
6.16,-2.46,-0.38
6.17,-3.52,-7.37
6.19,-4.45,-16.25
6.2,-4.3,-27.7
6.22,-2.08,-40.46
6.23,2.9,-51.71
6.25,10.81,-58.36
6.27,21.17,-58.46
6.28,33.04,-52.17
6.3,45.19,-41.76
6.31,56.65,-30.41
6.33,66.86,-20.7
6.34,75.59,-13.7
6.36,82.78,-9.02
6.38,88.35,-5.69
6.39,92.12,-3.06
6.41,93.93,-0.55
6.42,93.76,3.04
6.44,91.68,10.02
6.45,87.91,23.11
6.47,82.56,43.33
6.48,75.53,67.65
6.5,66.56,88.42
6.52,55.35,95.85
6.53,41.72,82.98
6.55,25.75,50.34
6.56,8.0,6.96
6.58,-10.46,-33.57
6.59,-28.06,-60.21
6.61,-43.1,-70.51
6.63,-54.19,-71.53
6.64,-60.59,-74.95
6.66,-62.52,-89.34
6.67,-61.05,-114.52
6.69,-57.73,-141.68
6.7,-54.03,-159.03
6.72,-51.01,-159.24
6.73,-49.08,-143.85
6.75,-48.14,-122.27
6.77,-47.78,-106.1
6.78,-47.47,-102.63
6.8,-46.83,-111.63
6.81,-45.59,-126.4
6.83,-43.59,-138.33
6.84,-40.69,-141.44
6.86,-36.86,-134.48
6.88,-32.04,-119.99
6.89,-26.35,-101.73
6.91,-20.13,-82.13
6.92,-14.01,-61.23
6.94,-8.8,-37.73
6.95,-5.28,-10.83
6.97,-3.75,18.26
6.98,-3.83,45.93
7.0,-4.51,67.5
7.02,-4.33,79.32
7.03,-1.99,80.65
7.05,3.24,74.12
7.06,11.41,64.68
7.08,21.86,57.37
7.09,33.65,55.29
7.11,45.83,58.64
7.13,57.69,65.3
7.14,68.82,72.28
7.16,79.02,77.24
7.17,88.21,79.26
7.19,96.45,78.72
7.2,104.01,76.58
7.22,111.41,73.73
7.23,119.35,70.65
7.25,128.37,67.45
7.27,138.7,64.17
7.28,149.94,60.93
7.3,161.24,57.94
7.31,171.49,55.43
7.33,179.83,53.53
7.34,186.08,52.11
7.36,190.84,50.93
7.38,195.45,49.7
7.39,201.49,48.21
7.41,210.23,46.48
7.42,222.02,44.76
7.44,235.95,43.35
7.45,249.8,42.31
7.47,260.61,41.32
7.48,265.52,39.66
7.5,262.79,36.43
7.52,252.44,31.0
7.53,236.16,23.26
7.55,216.53,13.81
7.56,196.05,3.7
7.58,176.36,-5.97
7.59,158.11,-14.45
7.61,141.38,-21.57
7.63,126.32,-27.79
7.64,113.43,-33.98
7.66,103.29,-41.07
7.67,96.03,-49.8
7.69,90.82,-60.36
7.7,85.86,-72.31
7.72,79.03,-84.66
7.73,68.68,-96.04
7.75,54.41,-105.07
7.77,37.13,-110.53
7.78,18.66,-111.55
7.8,1.02,-107.66
7.81,-14.25,-98.92
7.83,-26.5,-85.96
7.84,-35.96,-70.1
7.86,-43.46,-53.22
7.88,-49.94,-37.51
7.89,-56.22,-24.89
7.91,-62.84,-16.75
7.92,-70.21,-13.85
7.94,-78.59,-16.67
7.95,-88.15,-25.66
7.97,-98.82,-41.16
7.98,-110.23,-62.81
8.0,-121.65,-88.83
8.02,-132.23,-115.59
8.03,-141.37,-138.19
8.05,-148.99,-151.72
8.06,-155.66,-152.95
8.08,-162.45,-141.56
8.09,-170.56,-120.33
8.11,-180.88,-94.25
8.13,-193.68,-69.01
8.14,-208.45,-49.35
8.16,-224.09,-37.93
8.17,-239.01,-34.98
8.19,-251.54,-38.52
8.2,-260.26,-45.18
8.22,-264.37,-51.16
8.23,-263.85,-53.17
8.25,-259.22,-49.11
8.27,-251.12,-38.4
8.28,-239.99,-21.92
8.3,-225.95,-1.64
8.31,-208.94,20.03
8.33,-189.2,40.83
8.34,-167.54,59.3
8.36,-145.37,75.03
8.38,-124.3,88.55
8.39,-105.64,100.83
8.41,-90.15,112.57
8.42,-77.94,123.69
8.44,-68.77,133.18
8.45,-62.26,139.47
8.47,-58.15,141.11
8.48,-56.27,137.43
8.5,-56.57,128.78
8.52,-59.04,116.4
8.53,-63.67,101.9
8.55,-70.23,86.71
8.56,-78.01,71.79
8.58,-85.68,57.57
8.59,-91.48,44.21
8.61,-93.81,31.88
8.63,-91.87,20.82
8.64,-86.11,11.38
8.66,-78.06,3.77
8.67,-69.76,-2.06
8.69,-62.93,-6.41
8.7,-58.45,-9.75
8.72,-56.31,-12.55
8.73,-55.98,-15.11
8.75,-56.86,-17.54
8.77,-58.49,-19.73
8.78,-60.6,-21.46
8.8,-62.93,-22.47
8.81,-65.14,-22.53
8.83,-66.85,-21.48
8.84,-67.78,-19.27
8.86,-67.99,-15.94
8.88,-67.83,-11.54
8.89,-67.84,-6.09
8.91,-68.58,0.28
8.92,-70.35,7.28
8.94,-73.03,14.32
8.95,-75.89,20.52
8.97,-77.69,24.98
8.98,-76.98,27.04
9.0,-72.55,26.54
9.02,-63.88,23.86
9.03,-51.45,19.77
9.05,-36.65,15.09
9.06,-21.33,10.47
9.08,-7.27,6.3
9.09,4.3,2.7
9.11,12.77,-0.3
9.13,18.05,-2.69
9.14,20.3,-4.4
9.16,19.66,-5.39
9.17,16.28,-5.69
9.19,10.49,-5.47
9.2,2.96,-5.03
9.22,-5.29,-4.79
9.23,-13.09,-5.13
9.25,-19.46,-6.23
9.27,-23.85,-7.99
9.28,-26.3,-10.03
9.3,-27.39,-11.69
9.31,-27.91,-12.33
9.33,-28.55,-11.46
9.34,-29.44,-8.91
9.36,-30.1,-4.9
9.38,-29.5,0.05
9.39,-26.57,5.34
9.41,-20.65,10.41
9.42,-11.81,14.97
9.44,-0.94,18.93
9.45,10.62,22.31
9.47,21.53,25.1
9.48,30.85,27.13
9.5,38.17,28.1
9.52,43.51,27.74
9.53,47.03,26.0
9.55,48.89,23.17
9.56,49.13,19.8
9.58,47.95,16.53
9.59,45.81,13.81
9.61,43.46,11.81
9.63,41.8,10.36
9.64,41.51,9.17
9.66,42.77,7.95
9.67,45.19,6.57
9.69,47.93,4.95
9.7,50.16,3.04
9.72,51.38,0.73
9.73,51.77,-2.12
9.75,52.06,-5.53
9.77,53.29,-9.28
9.78,56.37,-12.81
9.8,61.61,-15.4
9.81,68.79,-16.3
9.83,77.18,-15.02
9.84,85.98,-11.5
9.86,94.48,-6.15
9.88,102.28,0.28
9.89,109.11,6.89
9.91,114.74,12.78
9.92,118.86,17.26
9.94,121.11,19.92
9.95,121.32,20.7
9.97,119.65,19.88
9.98,116.6,17.95
10.0,113.0,15.48
10.02,109.71,12.94
10.03,107.37,10.56
10.05,106.21,8.37
10.06,106.05,6.28
10.08,106.4,4.18
10.09,106.58,2.1
10.11,105.91,0.14
10.13,103.93,-1.63
10.14,100.59,-3.26
10.16,96.32,-4.91
10.17,91.99,-6.83
10.19,88.56,-9.26
10.2,86.82,-12.29
10.22,86.86,-15.81
10.23,87.98,-19.54
10.25,88.71,-23.05
10.27,87.27,-25.8
10.28,81.99,-27.26
10.3,71.85,-26.97
10.31,56.78,-24.66
10.33,37.76,-20.32
10.34,16.72,-14.22
10.36,-3.83,-6.92
10.38,-21.2,0.86
10.39,-32.97,8.35
10.41,-37.49,14.84
10.42,-34.27,19.82
10.44,-24.12,23.09
10.45,-8.99,24.71
10.47,8.51,24.97
10.48,25.77,24.31
10.5,40.76,23.12
10.52,52.5,21.67
10.53,61.07,20.01
10.55,67.43,18.13
10.56,72.97,15.93
10.58,79.02,13.44
10.59,86.5,10.76
10.61,95.8,8.08
10.63,106.69,5.58
10.64,118.42,3.36
10.66,129.83,1.44
10.67,139.51,-0.33
10.69,146.08,-2.14
10.7,148.58,-4.23
10.72,146.74,-6.76
10.73,141.04,-9.75
10.75,132.61,-12.96
10.77,122.69,-15.93
10.78,111.98,-18.01
10.8,100.3,-18.56
10.81,86.49,-17.18
10.83,68.88,-13.87
10.84,46.0,-9.01
10.86,17.22,-3.29
10.88,-16.87,2.49
10.89,-54.58,7.71
10.91,-93.61,11.97
10.92,-131.48,15.12
10.94,-165.86,17.24
10.95,-194.66,18.4
10.97,-216.14,18.7
10.98,-228.98,18.23
11.0,-232.51,17.06
11.02,-226.99,15.33
11.03,-213.65,13.25
11.05,-194.52,11.05
11.06,-171.92,8.95
11.08,-147.93,7.08
11.09,-124.19,5.45
11.11,-101.85,4.0
11.13,-81.83,2.66
11.14,-64.83,1.38
11.16,-51.32,0.18
11.17,-41.18,-0.91
11.19,-33.55,-1.95
11.2,-26.84,-3.04
11.22,-19.18,-4.38
11.23,-9.1,-6.09
11.25,3.98,-8.06
11.27,19.46,-9.91
11.28,35.65,-11.05
11.3,50.26,-10.86
11.31,61.12,-8.98
11.33,67.08,-5.44
11.34,68.57,-0.67
11.36,67.73,4.66
11.38,67.71,9.83
11.39,71.34,14.29
11.41,79.62,17.77
11.42,90.94,20.21
11.44,101.45,21.71
11.45,106.48,22.46
11.47,102.33,22.6
11.48,87.52,22.28
11.5,63.11,21.59
11.52,31.91,20.56
11.53,-2.52,19.15
11.55,-36.76,17.35
11.56,-67.72,15.17
11.58,-92.5,12.72
11.59,-108.66,10.19
11.61,-114.9,7.78
11.63,-112.09,5.63
11.64,-103.66,3.78
11.66,-95.23,2.17
11.67,-93.05,0.68
11.69,-102.07,-0.8
11.7,-124.24,-2.38
11.72,-157.76,-4.09
11.73,-197.64,-5.94
11.75,-237.04,-7.84
11.77,-269.09,-9.52
11.78,-288.49,-10.61
11.8,-292.56,-10.72
11.81,-281.51,-9.6
11.83,-257.96,-7.29
11.84,-226.08,-4.08
11.86,-190.54,-0.41
11.88,-155.64,3.29
11.89,-124.62,6.75
11.91,-99.39,9.83
11.92,-80.5,12.44
11.94,-67.37,14.47
11.95,-58.51,15.77
11.97,-51.91,16.19
11.98,-45.51,15.74
12.0,-37.67,14.62
12.02,-27.59,13.17
12.03,-15.39,11.75
12.05,-1.97,10.58
12.06,11.44,9.65
12.08,23.73,8.78
12.09,34.25,7.74
12.11,42.95,6.38
12.13,50.28,4.74
12.14,56.99,3.02
12.16,63.77,1.43
12.17,70.94,0.08
12.19,78.26,-1.11
12.2,84.69,-2.4
12.22,88.69,-4.01
12.23,88.57,-6.05
12.25,83.2,-8.32
12.27,72.35,-10.38
12.28,56.9,-11.69
12.3,38.56,-11.76
12.31,19.34,-10.37
12.33,1.08,-7.61
12.34,-14.98,-3.86
12.36,-28.23,0.34
12.38,-38.52,4.46
12.39,-45.97,8.07
12.41,-50.98,10.94
12.42,-54.0,13.0
12.44,-55.62,14.23
12.45,-56.27,14.7
12.47,-56.16,14.43
12.48,-55.19,13.5
12.5,-53.01,12.0
12.52,-49.27,10.12
12.53,-43.86,8.04
12.55,-37.06,5.98
12.56,-29.45,4.06
12.58,-21.62,2.4
12.59,-13.99,1.01
12.61,-6.79,-0.14
12.63,-0.15,-1.11
12.64,5.81,-1.96
12.66,10.84,-2.78
12.67,14.54,-3.63
12.69,16.5,-4.53
12.7,16.38,-5.56
12.72,14.14,-6.77
12.73,10.03,-8.18
12.75,4.73,-9.69
12.77,-0.74,-11.02
12.78,-5.25,-11.76
12.8,-7.85,-11.45
12.81,-8.13,-9.81
12.83,-6.22,-6.84
12.84,-2.8,-2.85
12.86,1.15,1.6
12.88,4.69,5.96
12.89,7.17,9.74
12.91,8.32,12.69
12.92,8.33,14.69
12.94,7.76,15.74
12.95,7.32,15.87
12.97,7.83,15.13
12.98,9.94,13.67
13.0,13.95,11.71
13.02,19.75,9.52
13.03,26.78,7.39
13.05,34.2,5.52
13.06,41.06,3.99
13.08,46.56,2.78
13.09,50.18,1.76
13.11,51.79,0.79
13.13,51.65,-0.26
13.14,50.33,-1.44
13.16,48.44,-2.7
13.17,46.54,-4.03
13.19,44.92,-5.42
13.2,43.58,-6.94
13.22,42.32,-8.7
13.23,40.84,-10.69
13.25,38.91,-12.68
13.27,36.42,-14.2
13.28,33.33,-14.68
13.3,29.74,-13.66
13.31,25.91,-10.99
13.33,22.34,-6.93
13.34,19.76,-2.06
13.36,18.84,2.94
13.38,19.95,7.54
13.39,22.96,11.4
13.41,27.16,14.45
13.42,31.52,16.66
13.44,35.05,18.0
13.45,37.04,18.37
13.47,37.18,17.69
13.48,35.35,16.02
13.5,31.59,13.58
13.52,26.04,10.77
13.53,18.91,8.0
13.55,10.66,5.55
13.56,1.96,3.51
13.58,-6.48,1.78
13.59,-14.01,0.18
13.61,-20.32,-1.41
13.63,-25.35,-3.02
13.64,-29.22,-4.57
13.66,-32.16,-6.02
13.67,-34.45,-7.41
13.69,-36.33,-8.91
13.7,-37.88,-10.71
13.72,-38.95,-12.87
13.73,-39.05,-15.23
13.75,-37.45,-17.33
13.77,-33.5,-18.55
13.78,-26.94,-18.35
13.8,-18.2,-16.47
13.81,-8.38,-13.03
13.83,1.12,-8.57
13.84,9.01,-3.8
13.86,14.55,0.61
13.88,17.68,4.25
13.89,18.86,6.99
13.91,18.66,8.92
13.92,17.52,10.18
13.94,15.59,10.84
13.95,12.88,10.91
13.97,9.54,10.33
13.98,6.03,9.19
14.0,3.1,7.7
14.02,1.6,6.15
14.03,2.06,4.85
14.05,4.38,3.92
14.06,7.87,3.27
14.08,11.5,2.66
14.09,14.41,1.87
14.11,16.41,0.78
14.13,18.11,-0.55
14.14,20.65,-1.97
14.16,25.12,-3.4
14.17,32.02,-4.87
14.19,41.03,-6.54
14.2,51.24,-8.57
14.22,61.54,-10.94
14.23,71.01,-13.32
14.25,79.02,-15.19
14.27,85.1,-15.96
14.28,88.67,-15.24
14.3,88.89,-13.01
14.31,84.94,-9.57
14.33,76.42,-5.46
14.34,63.73,-1.22
14.36,48.11,2.75
14.38,31.44,6.26
14.39,15.62,9.23
14.41,2.06,11.63
14.42,-8.68,13.37
14.44,-16.8,14.28
14.45,-23.0,14.27
14.47,-27.95,13.33
14.48,-32.04,11.65
14.5,-35.18,9.49
14.52,-36.88,7.17
14.53,-36.52,4.85
14.55,-33.61,2.61
14.56,-27.95,0.39
14.58,-19.68,-1.85
14.59,-9.28,-4.12
14.61,2.51,-6.27
14.63,14.67,-8.12
14.64,26.1,-9.53
14.66,35.67,-10.5
14.67,42.4,-11.23
14.69,45.66,-11.98
14.7,45.29,-12.97
14.72,41.58,-14.2
14.73,35.2,-15.38
14.75,27.03,-16.05
14.77,18.04,-15.7
14.78,9.1,-14.03
14.8,0.9,-11.05
14.81,-6.15,-7.07
14.83,-11.88,-2.66
14.84,-16.41,1.63
14.86,-20.02,5.34
14.88,-23.06,8.19
14.89,-25.76,10.09
14.91,-28.08,11.1
14.92,-29.67,11.32
14.94,-29.95,10.9
14.95,-28.38,10.0
14.97,-24.62,8.75
14.98,-18.77,7.28
15.0,-11.36,5.69
15.02,-3.25,4.02
15.03,4.59,2.31
15.05,11.29,0.6
15.06,16.29,-1.05
15.08,19.42,-2.56
15.09,20.86,-3.82
15.11,21.05,-4.77
15.13,20.55,-5.43
15.14,19.82,-5.88
15.16,19.14,-6.33
15.17,18.53,-7.0
15.19,17.84,-8.02
15.2,16.96,-9.41
15.22,15.81,-10.97
15.23,14.46,-12.37
15.25,13.0,-13.23
15.27,11.53,-13.22
15.28,10.07,-12.17
15.3,8.71,-10.16
15.31,7.69,-7.4
15.33,7.42,-4.2
15.34,8.32,-0.87
15.36,10.62,2.35
15.38,14.21,5.24
15.39,18.58,7.62
15.41,22.93,9.3
15.42,26.43,10.17
15.44,28.45,10.17
15.45,28.74,9.41
15.47,27.45,8.06
15.48,25.02,6.38
15.5,22.05,4.62
15.52,19.11,2.97
15.53,16.58,1.52
15.55,14.57,0.31
15.56,13.07,-0.68
15.58,12.04,-1.44
15.59,11.55,-2.06
15.61,11.75,-2.61
15.63,12.7,-3.21
15.64,14.16,-3.95
15.66,15.55,-4.95
15.67,16.18,-6.27
15.69,15.58,-7.96
15.7,13.91,-9.97
15.72,11.97,-12.11
15.73,10.8,-14.06
15.75,11.37,-15.43
15.77,13.99,-15.84
15.78,18.26,-15.06
15.8,23.15,-13.09
15.81,27.48,-10.12
15.83,30.32,-6.52
15.84,31.24,-2.62
15.86,30.32,1.23
15.88,27.98,4.74
15.89,24.71,7.67
15.91,20.89,9.81
15.92,16.69,11.02
15.94,12.18,11.31
15.95,7.46,10.84
15.97,2.72,9.88
15.98,-1.81,8.68
16.0,-6.0,7.35
16.02,-9.89,5.93
16.03,-13.79,4.37
16.05,-18.14,2.7
16.06,-23.23,1.01
16.08,-29.0,-0.57
16.09,-34.86,-1.93
16.11,-39.79,-3.05
16.13,-42.55,-3.98
16.14,-42.2,-4.87
16.16,-38.38,-5.83
16.17,-31.51,-6.99
16.19,-22.8,-8.44
16.2,-13.78,-10.13
16.22,-5.84,-11.93
16.23,0.09,-13.49
16.25,3.72,-14.39
16.27,5.37,-14.22
16.28,5.56,-12.74
16.3,4.82,-10.01
16.31,3.56,-6.3
16.33,1.96,-2.06
16.34,0.15,2.31
16.36,-1.7,6.46
16.38,-3.39,10.16
16.39,-4.68,13.17
16.41,-5.33,15.28
16.42,-5.2,16.3
16.44,-4.28,16.14
16.45,-2.73,14.88
16.47,-0.8,12.83
16.48,1.31,10.41
16.5,3.6,8.01
16.52,6.29,5.94
16.53,9.69,4.26
16.55,13.98,2.93
16.56,18.99,1.8
16.58,24.2,0.76
16.59,28.86,-0.26
16.61,32.28,-1.23
16.63,34.14,-2.16
16.64,34.46,-3.05
16.66,33.52,-3.97
16.67,31.69,-5.03
16.69,29.22,-6.3
16.7,26.36,-7.8
16.72,23.41,-9.44
16.73,20.92,-10.95
16.75,19.44,-11.97
16.77,19.45,-12.09
16.78,21.04,-10.99
16.8,23.92,-8.56
16.81,27.66,-4.98
16.83,31.89,-0.67
16.84,36.45,3.8
16.86,41.43,7.91
16.88,46.91,11.27
16.89,52.77,13.71
16.91,58.66,15.22
16.92,64.15,15.87
16.94,68.98,15.72
16.95,73.28,14.83
16.97,77.53,13.27
16.98,82.27,11.18
17.0,87.86,8.7
17.02,94.16,6.05
17.03,100.6,3.44
17.05,106.35,1.06
17.06,110.8,-0.96
17.08,113.75,-2.58
17.09,115.55,-3.86
17.11,117.04,-4.93
17.13,119.2,-5.97
17.14,122.77,-7.11
17.16,128.0,-8.44
17.17,134.51,-9.96
17.19,141.29,-11.65
17.2,147.05,-13.41
17.22,150.47,-15.1
17.23,150.6,-16.49
17.25,147.13,-17.25
17.27,140.54,-17.05
17.28,132.01,-15.65
17.3,123.17,-12.99
17.31,115.68,-9.27
17.33,110.79,-4.87
17.34,108.92,-0.29
17.36,109.55,4.05
17.38,111.38,7.81
17.39,112.63,10.77
17.41,111.59,12.77
17.42,107.03,13.73
17.44,98.47,13.59
17.45,86.19,12.4
17.47,71.06,10.37
17.48,54.08,7.8
17.5,36.07,5.05
17.52,17.5,2.42
17.53,-1.61,0.07
17.55,-21.48,-1.96
17.56,-42.4,-3.71
17.58,-64.43,-5.21
17.59,-87.22,-6.45
17.61,-109.93,-7.39
17.63,-131.4,-8.06
17.64,-150.61,-8.6
17.66,-167.05,-9.26
17.67,-181.1,-10.29
17.69,-193.8,-11.78
17.7,-206.42,-13.59
17.72,-219.81,-15.29
17.73,-233.96,-16.37
17.75,-247.96,-16.41
17.77,-260.52,-15.19
17.78,-270.55,-12.83
17.8,-277.69,-9.61
17.81,-282.41,-5.88
17.83,-285.64,-1.95
17.84,-288.21,1.92
17.86,-290.35,5.52
17.88,-291.47,8.64
17.89,-290.2,11.05
17.91,-284.79,12.6
17.92,-273.74,13.25
17.94,-256.37,13.07
17.95,-233.24,12.24
17.97,-206.16,10.92
17.98,-177.74,9.24
18.0,-150.72,7.29
18.02,-127.29,5.21
18.03,-108.8,3.15
18.05,-95.76,1.27
18.06,-88.04,-0.34
18.08,-85.03,-1.67
18.09,-85.76,-2.83
18.11,-88.76,-3.91
18.13,-92.31,-4.99
18.14,-94.69,-6.06
18.16,-94.75,-7.14
18.17,-92.2,-8.31
18.19,-87.71,-9.69
18.2,-82.51,-11.42
18.22,-77.83,-13.45
18.23,-74.43,-15.43
18.25,-72.36,-16.81
18.27,-71.13,-17.02
18.28,-69.95,-15.67
18.3,-68.01,-12.76
18.31,-64.73,-8.7
18.33,-59.83,-4.12
18.34,-53.35,0.35
18.36,-45.66,4.25
18.38,-37.26,7.39
18.39,-28.69,9.72
18.41,-20.32,11.27
18.42,-12.31,12.08
18.44,-4.65,12.16
18.45,2.7,11.57
18.47,9.66,10.47
18.48,16.14,9.02
18.5,22.14,7.38
18.52,27.93,5.65
18.53,33.97,3.83
18.55,40.83,1.91
18.56,48.9,-0.08
18.58,58.27,-2.02
18.59,68.75,-3.73
18.61,80.06,-5.07
18.63,91.99,-6.01
18.64,104.39,-6.63
18.66,116.81,-7.08
18.67,128.26,-7.58
18.69,137.12,-8.32
18.7,141.6,-9.39
18.72,140.52,-10.79
18.73,134.04,-12.35
18.75,123.84,-13.75
18.77,112.66,-14.58
18.78,103.14,-14.5
18.8,96.75,-13.26
18.81,93.18,-10.86
18.83,90.47,-7.52
18.84,85.96,-3.58
18.86,77.48,0.54
18.88,64.33,4.48
18.89,47.57,7.9
18.91,29.65,10.52
18.92,13.54,12.16
18.94,1.7,12.72
18.95,-4.59,12.24
18.97,-5.51,10.92
18.98,-2.37,9.1
19.0,2.99,7.05
19.02,8.93,5.01
19.03,14.29,3.04
19.05,18.45,1.11
19.06,21.07,-0.84
19.08,21.83,-2.8
19.09,20.44,-4.72
19.11,16.88,-6.5
19.13,11.76,-8.04
19.14,6.34,-9.3
19.16,2.23,-10.35
19.17,0.71,-11.29
19.19,2.24,-12.25
19.2,6.24,-13.34
19.22,11.37,-14.61
19.23,16.21,-15.97
19.25,19.86,-17.2
19.27,22.3,-17.97
19.28,24.33,-17.9
19.3,27.17,-16.72
19.31,32.01,-14.41
19.33,39.54,-11.17
19.34,49.69,-7.43
19.36,61.66,-3.67
19.38,74.04,-0.28
19.39,85.52,2.54
19.41,95.43,4.74
19.42,103.89,6.37
19.44,111.48,7.53
19.45,119.0,8.27
19.47,127.1,8.59
19.48,136.31,8.49
19.5,147.03,7.98
19.52,159.29,7.11
19.53,172.8,5.98
19.55,186.7,4.72
19.56,199.43,3.44
19.58,208.93,2.27
19.59,213.35,1.27
19.61,211.85,0.44
19.63,204.97,-0.19
19.64,194.23,-0.69
19.66,180.7,-1.09
19.67,165.0,-1.49
19.69,147.41,-2.03
19.7,128.3,-2.88
19.72,108.32,-4.17
19.73,88.61,-5.95
19.75,70.55,-8.07
19.77,55.24,-10.2
19.78,43.08,-11.85
19.8,32.23,-12.48
19.81,21.14,-11.69
19.83,9.56,-9.34
19.84,-1.76,-5.6
19.86,-12.44,-0.92
19.88,-23.18,4.04
19.89,-35.42,8.62
19.91,-50.44,12.29
19.92,-68.47,14.74
19.94,-91.38,15.9
19.95,-118.61,15.93
19.97,-146.69,15.09
19.98,-170.98,13.69
20.0,-188.65,12.0
20.02,-199.83,10.19
20.03,-206.88,8.36
20.05,-212.98,6.55
20.06,-220.88,4.81
20.08,-236.78,3.2
20.09,-263.04,1.79
20.11,-296.18,0.58
20.13,-328.66,-0.44
20.14,-353.55,-1.34
20.16,-367.33,-2.2
20.17,-369.67,-3.1
20.19,-362.48,-4.04
20.2,-349.21,-5.0
20.22,-340.44,-5.98
20.23,-344.3,-6.97
20.25,-362.38,-8.0
20.27,-389.95,-9.03
20.28,-419.7,-9.92
20.3,-444.73,-10.39
20.31,-459.51,-10.12
20.33,-461.13,-8.78
20.34,-412.18,-6.21
20.36,-302.2,-2.53
20.38,-154.72,1.89
20.39,-10.56,6.44
20.41,102.88,10.5
20.42,180.8,13.58
20.44,230.74,15.48
20.45,262.38,16.3
20.47,283.11,16.29
20.48,297.58,15.75
20.5,302.62,14.79
20.52,296.45,13.41
20.53,281.36,11.53
20.55,262.27,9.17
20.56,242.87,6.51
20.58,224.33,3.86
20.59,206.75,1.58
20.61,190.23,-0.11
20.63,174.93,-1.22
20.64,155.32,-1.91
20.66,128.92,-2.42
20.67,98.01,-2.97
20.69,68.38,-3.63
20.7,45.59,-4.46
20.72,32.34,-5.5
20.73,28.51,-6.84
20.75,32.11,-8.56
20.77,40.21,-10.63
20.78,47.04,-12.74
20.8,48.92,-14.38
20.81,45.29,-14.92
20.83,38.01,-13.88
20.84,29.42,-11.11
20.86,21.14,-6.92
20.88,14.01,-1.92
20.89,8.53,3.1
20.91,4.77,7.51
20.92,0.95,10.88
20.94,-2.4,13.06
20.95,-2.73,14.08
20.97,0.82,14.06
20.98,6.85,13.17
21.0,12.73,11.6
21.02,17.06,9.57
21.03,20.93,7.3
21.05,27.14,5.02
21.06,37.93,2.88
21.08,54.01,1.0
21.09,73.63,-0.62
21.11,93.25,-2.0
21.13,109.2,-3.22
21.14,119.0,-4.32
21.16,121.99,-5.34
21.17,118.88,-6.3
21.19,110.58,-7.22
21.2,97.74,-8.19
21.22,80.99,-9.35
21.23,61.14,-10.86
21.25,39.82,-12.77
21.27,19.42,-14.96
21.28,2.4,-17.08
21.3,-10.02,-18.59
21.31,-17.67,-18.89
21.33,-21.44,-17.56
21.34,-22.76,-14.55
21.36,-22.97,-10.17
21.38,-23.21,-5.07
21.39,-24.3,0.05
21.41,-26.9,4.59
21.42,-31.65,8.21
21.44,-39.25,10.79
21.45,-49.94,12.41
21.47,-63.05,13.18
21.48,-76.53,13.19
21.5,-87.02,12.49
21.52,-91.05,11.17
21.53,-86.61,9.35
21.55,-74.42,7.19
21.56,-58.08,4.86
21.58,-42.79,2.54
21.59,-33.21,0.37
21.61,-31.7,-1.56
21.63,-37.78,-3.2
21.64,-48.07,-4.55
21.66,-59.11,-5.69
21.67,-68.06,-6.71
21.69,-73.5,-7.71
21.7,-75.25,-8.76
21.72,-73.54,-9.93
21.73,-68.26,-11.3
21.75,-58.89,-12.87
21.77,-45.08,-14.57
21.78,-27.25,-16.18
21.8,-7.07,-17.34
21.81,13.13,-17.64
21.83,30.87,-16.77
21.84,44.05,-14.62
21.86,51.31,-11.34
21.88,52.07,-7.31
21.89,46.54,-2.96
21.91,35.76,1.31
21.92,21.73,5.18
21.94,7.06,8.45
21.95,-5.59,10.93
21.97,-14.52,12.5
21.98,-19.81,13.1
22.0,-23.6,12.78
22.02,-29.23,11.7
22.03,-40.04,10.13
22.05,-57.79,8.35
22.06,-81.62,6.58
22.08,-108.07,4.97
22.09,-131.99,3.54
22.11,-148.39,2.26
22.13,-154.06,1.05
22.14,-148.41,-0.17
22.16,-133.39,-1.41
22.17,-112.36,-2.64
22.19,-88.75,-3.81
22.2,-64.99,-4.88
22.22,-42.33,-5.88
22.23,-21.38,-6.97
22.25,-2.79,-8.29
22.27,12.42,-9.96
22.28,23.18,-11.85
22.3,29.19,-13.66
22.31,31.37,-14.86
22.33,31.75,-15.0
22.34,32.53,-13.81
22.36,34.93,-11.35
22.38,38.61,-7.96
22.39,42.06,-4.11
22.41,43.64,-0.27
22.42,42.75,3.26
22.44,40.22,6.33
22.45,38.08,8.88
22.47,38.53,10.86
22.48,43.1,12.22
22.5,52.03,12.89
22.52,64.47,12.82
22.53,78.9,12.08
22.55,93.82,10.8
22.56,108.09,9.15
22.58,121.07,7.29
22.59,132.44,5.37
22.61,141.8,3.48
22.63,148.42,1.65
22.64,151.17,-0.08
22.66,148.81,-1.72
22.67,140.64,-3.2
22.69,126.89,-4.46
22.7,109.01,-5.42
22.72,89.33,-6.16
22.73,70.37,-6.86
22.75,54.06,-7.8
22.77,41.38,-9.23
22.78,32.41,-11.14
22.8,26.68,-13.24
22.81,23.56,-14.99
22.83,22.32,-15.8
22.84,22.07,-15.29
22.86,21.84,-13.39
22.88,20.98,-10.34
22.89,19.62,-6.59
22.91,18.95,-2.58
22.92,20.76,1.3
22.94,26.41,4.76
22.95,35.75,7.59
22.97,46.62,9.67
22.98,55.32,10.95
23.0,58.21,11.49
23.02,53.2,11.43
23.03,40.62,10.92
23.05,22.81,10.04
23.06,2.92,8.78
23.08,-16.46,7.14
23.09,-33.92,5.14
23.11,-48.97,2.93
23.13,-61.24,0.73
23.14,-70.03,-1.24
23.16,-74.38,-2.8
23.17,-73.82,-3.95
23.19,-69.02,-4.75
23.2,-61.87,-5.32
23.22,-55.08,-5.8
23.23,-51.16,-6.31
23.25,-51.66,-6.97
23.27,-56.63,-7.91
23.28,-64.79,-9.14
23.3,-73.92,-10.58
23.31,-81.49,-11.92
23.33,-85.19,-12.76
23.34,-83.51,-12.66
23.36,-76.15,-11.38
23.38,-63.96,-8.93
23.39,-48.7,-5.58
23.41,-32.4,-1.76
23.42,-16.8,2.1
23.44,-3.0,5.67
23.45,8.5,8.69
23.47,17.55,11.05
23.48,24.07,12.67
23.5,28.1,13.53
23.52,30.0,13.67
23.53,30.55,13.17
23.55,30.81,12.15
23.56,31.73,10.75
23.58,33.73,9.09
23.59,36.49,7.33
23.61,38.92,5.59
23.63,39.5,3.95
23.64,36.83,2.46
23.66,29.87,1.09
23.67,18.48,-0.22
23.69,3.49,-1.5
23.7,-13.2,-2.73
23.72,-28.98,-3.84
23.73,-41.2,-4.79
23.75,-48.01,-5.65
23.77,-49.12,-6.55
23.78,-45.88,-7.59
23.8,-40.83,-8.73
23.81,-36.55,-9.69
23.83,-34.69,-10.1
23.84,-35.44,-9.55
23.86,-37.91,-7.84
23.88,-41.0,-5.02
23.89,-44.07,-1.37
23.91,-47.36,2.68
23.92,-51.37,6.71
23.94,-56.24,10.36
23.95,-61.2,13.34
23.97,-64.62,15.49
23.98,-64.79,16.66
24.0,-60.74,16.81
24.02,-52.71,15.99
24.03,-42.09,14.3
24.05,-30.85,11.96
24.06,-20.74,9.22
24.08,-12.7,6.38
24.09,-6.65,3.72
24.11,-1.67,1.48
24.13,3.43,-0.21
24.14,9.66,-1.35
24.16,17.38,-2.06
24.17,26.2,-2.53
24.19,35.24,-2.97
24.2,43.47,-3.55
24.22,50.3,-4.39
24.23,55.67,-5.57
24.25,59.98,-7.14
24.27,63.64,-9.09
24.28,66.67,-11.26
24.3,68.58,-13.37
24.31,68.62,-14.97
24.33,66.33,-15.64
24.34,61.89,-15.04
24.36,56.17,-13.1
24.38,50.34,-9.98
24.39,45.27,-6.06
24.41,41.03,-1.81
24.42,36.78,2.41
24.44,31.05,6.3
24.45,22.28,9.61
24.47,9.42,12.16
24.48,-7.57,13.74
24.5,-27.54,14.21
24.52,-48.31,13.55
24.53,-67.29,11.91
24.55,-82.15,9.6
24.56,-91.41,6.96
24.58,-94.79,4.3
24.59,-93.05,1.82
24.61,-87.49,-0.36
24.63,-79.5,-2.17
24.64,-70.04,-3.57
24.66,-59.7,-4.57
24.67,-48.82,-5.27
24.69,-37.75,-5.83
24.7,-26.96,-6.47
24.72,-16.96,-7.39
24.73,-8.13,-8.71
24.75,-0.45,-10.46
24.77,6.3,-12.53
24.78,12.46,-14.67
24.8,18.11,-16.49
24.81,22.93,-17.53
24.83,26.21,-17.4
24.84,27.15,-15.84
24.86,25.24,-12.9
24.88,20.81,-8.91
24.89,15.33,-4.36
24.91,11.14,0.21
24.92,10.97,4.4
24.94,17.1,7.96
24.95,30.47,10.77
24.97,50.3,12.75
24.98,74.03,13.88
25.0,97.79,14.12
25.02,117.28,13.49
25.03,128.54,12.07
25.05,128.64,10.04
25.06,116.22,7.64
25.08,91.71,5.13
25.09,57.23,2.72
25.11,16.32,0.58
25.13,-26.64,-1.2
25.14,-67.07,-2.59
25.16,-101.02,-3.61
25.17,-125.76,-4.28
25.19,-140.28,-4.63
25.2,-145.18,-4.75
25.22,-142.35,-4.78
25.23,-134.37,-4.91
25.25,-123.72,-5.35
25.27,-112.25,-6.21
25.28,-100.85,-7.47
25.3,-89.41,-8.84
25.31,-77.2,-9.85
25.33,-63.33,-9.95
25.34,-47.26,-8.66
25.36,-29.08,-5.77
25.38,-9.67,-1.44
25.39,9.59,3.81
25.41,27.02,9.26
25.42,41.12,14.23
25.44,50.94,18.25
25.45,56.3,21.21
25.47,57.92,23.2
25.48,57.14,24.46
25.5,55.61,25.15
25.52,54.75,25.34
25.53,55.38,25.08
25.55,57.44,24.44
25.56,60.06,23.67
25.58,61.98,23.14
25.59,62.03,23.23
25.61,59.51,24.19
25.63,54.28,26.03
25.64,46.64,28.58
25.66,36.92,31.57
25.67,25.49,34.8
25.69,12.9,38.15
25.7,0.11,41.68
25.72,-11.29,45.52
25.73,-19.32,49.82
25.75,-22.17,54.62
25.77,-18.98,59.85
25.78,-10.15,65.4
25.8,2.63,71.13
25.81,17.11,77.09
25.83,31.19,83.5
25.84,43.37,90.8
25.86,52.84,99.56
25.88,59.21,110.21
25.89,62.16,122.86
25.91,61.4,137.14
25.92,56.87,152.35
25.94,49.0,167.66
25.95,38.85,182.39
25.97,27.98,196.09
25.98,17.91,208.61
26.0,9.75,220.02
26.02,3.87,230.57
26.03,-0.16,240.46
26.05,-3.25,249.49
26.06,-6.28,256.62
26.08,-9.66,259.74
26.09,-13.03,256.0
26.11,-15.42,242.69
26.13,-15.56,218.42
26.14,-12.48,183.96
26.16,-6.03,142.2
26.17,3.01,97.16
26.19,13.12,52.71
26.2,22.64,11.76
26.22,30.2,-24.02
26.23,35.1,-53.83
26.25,37.3,-77.6
26.27,37.17,-95.92
26.28,35.2,-109.7
26.3,31.74,-119.62
26.31,27.04,-125.11
26.33,21.35,-123.74
26.34,15.11,-111.33
26.36,8.91,-83.64
26.38,3.51,-38.76
26.39,-0.54,20.87
26.41,-3.13,88.2
26.42,-4.69,153.59
26.44,-6.2,208.14
26.45,-8.66,246.8
26.47,-12.65,269.34
26.48,-17.87,279.19
26.5,-23.07,280.74
26.52,-26.36,277.01
26.53,-25.91,268.71
26.55,-20.72,255.16
26.56,-11.01,235.8
26.58,1.85,211.56
26.59,15.84,184.98
26.61,28.9,159.09
26.63,39.48,135.94
26.64,46.74,115.58
26.66,50.38,96.43
26.67,50.47,76.45
26.69,47.19,54.56
26.7,40.96,31.34
26.72,32.52,8.5
26.73,22.99,-11.91
26.75,13.68,-28.66
26.77,5.8,-41.88
26.78,0.06,-52.91
26.8,-3.51,-63.63
26.81,-5.56,-75.73
26.83,-7.09,-90.17
26.84,-9.02,-107.12
26.86,-11.92,-126.14
26.88,-15.7,-146.59
26.89,-19.67,-167.95
26.91,-22.77,-189.93
26.92,-23.81,-212.6
26.94,-21.94,-236.44
26.95,-16.83,-262.31
26.97,-8.82,-291.45
26.98,1.17,-324.92
27.0,11.92,-362.75
27.02,22.33,-403.38
27.03,31.63,-443.41
27.05,39.43,-478.25
27.06,45.67,-503.51
27.08,50.42,-516.38
27.09,53.71,-516.59
27.11,55.53,-506.45
27.13,55.93,-489.97
27.14,55.13,-471.62
27.16,53.46,-455.18
27.17,51.48,-443.11
27.19,49.7,-436.19
27.2,48.51,-433.41
27.22,48.01,-432.2
27.23,47.8,-428.88
27.25,47.02,-419.7
27.27,44.46,-402.28
27.28,38.93,-376.98
27.3,29.71,-347.58
27.31,16.95,-320.59
27.33,1.81,-303.06
27.34,-13.74,-299.77
27.36,-27.48,-310.8
27.38,-37.5,-330.94
27.39,-42.8,-351.33
27.41,-43.47,-362.69
27.42,-40.5,-358.7
27.44,-35.42,-337.99
27.45,-29.71,-303.75
27.47,-24.44,-261.73
27.48,-20.1,-217.51
27.5,-16.62,-174.56
27.52,-13.6,-133.9
27.53,-10.64,-95.11
27.55,-7.54,-57.72
27.56,-4.35,-22.31
27.58,-1.3,9.54
27.59,1.37,35.91
27.61,3.53,55.5
27.63,5.11,68.25
27.64,6.03,75.35
27.66,6.09,78.82
27.67,5.04,80.74
27.69,2.76,82.63
27.7,-0.42,85.17
27.72,-3.68,88.4
27.73,-5.87,92.15
27.75,-5.89,96.54
27.77,-3.25,101.95
27.78,1.71,108.68
27.8,7.85,116.41
27.81,13.61,124.02
27.83,17.62,129.93
27.84,19.17,132.96
27.86,18.36,133.07
27.88,15.96,131.55
27.89,13.02,130.41
27.91,10.4,131.51
27.92,8.56,135.66
27.94,7.68,142.49
27.95,7.76,150.8
27.97,8.91,159.24
27.98,11.35,166.7
28.0,15.23,172.37
28.02,20.33,175.49
28.03,25.88,175.25
28.05,30.7,171.12
28.06,33.61,163.22
28.08,34.11,152.57
28.09,32.67,140.87
28.11,30.6,129.76
28.13,29.44,120.18
28.14,30.23,112.02
28.16,32.89,104.49
28.17,36.25,96.76
28.19,38.57,88.74
28.2,38.34,81.19
28.22,34.9,75.28
28.23,28.61,71.86
28.25,20.62,70.8
28.27,12.14,70.95
28.28,4.16,70.6
28.3,-2.84,68.28
28.31,-8.8,63.44
28.33,-13.72,56.66
28.34,-17.58,49.28
28.36,-20.36,42.88
28.38,-22.2,38.81
28.39,-23.53,37.8
28.41,-25.1,40.04
28.42,-27.6,45.2
28.44,-31.35,52.6
28.45,-35.96,61.31
28.47,-40.35,70.34
28.48,-43.03,78.68
28.5,-42.62,85.48
28.52,-38.35,90.03
28.53,-30.23,91.62
28.55,-19.03,89.51
28.56,-5.94,83.08
28.58,7.88,72.16
28.59,21.5,57.45
28.61,34.29,40.6
28.63,45.74,23.89
28.64,55.34,9.51
28.66,62.58,-1.17
28.67,67.07,-8.04
28.69,68.95,-12.06
28.7,68.92,-14.69
28.72,68.22,-17.13
28.73,68.21,-19.96
28.75,69.91,-23.06
28.77,73.47,-26.01
28.78,78.16,-28.54
28.8,82.54,-30.77
28.81,84.98,-33.12
28.83,84.05,-35.96
28.84,78.81,-39.2
28.86,68.92,-42.09
28.88,54.7,-43.31
28.89,37.25,-41.5
28.91,18.29,-35.78
28.92,0.0,-26.22
28.94,-15.48,-13.75
28.95,-26.67,0.08
28.97,-33.18,13.74
28.98,-35.73,26.05
29.0,-35.68,36.39
29.02,-34.41,44.51
29.03,-32.79,50.32
29.05,-31.0,53.72
29.06,-28.84,54.66
29.08,-26.03,53.16
29.09,-22.61,49.56
29.11,-18.93,44.46
29.13,-15.55,38.7
29.14,-13.08,33.14
29.16,-12.08,28.48
29.17,-13.07,25.13
29.19,-16.54,23.07
29.2,-22.78,21.94
29.22,-31.7,21.17
29.23,-42.71,20.21
29.25,-54.71,18.65
29.27,-66.24,16.35
29.28,-75.93,13.3
29.3,-82.8,9.55
29.31,-86.43,5.11
29.33,-86.98,0.08
29.34,-85.08,-5.15
29.36,-81.58,-9.87
29.38,-77.4,-13.08
29.39,-73.31,-13.79
29.41,-69.83,-11.43
29.42,-67.09,-6.1
29.44,-64.84,1.39
29.45,-62.48,9.8
29.47,-59.22,17.85
29.48,-54.41,24.62
29.5,-47.65,29.71
29.52,-39.0,33.14
29.53,-29.02,35.1
29.55,-18.6,35.76
29.56,-8.77,35.14
29.58,-0.37,33.21
29.59,6.06,30.03
29.61,10.49,25.87
29.63,13.23,21.12
29.64,14.84,16.24
29.66,15.92,11.59
29.67,17.04,7.4
29.69,18.74,3.74
29.7,21.41,0.63
29.72,25.23,-1.9
29.73,29.94,-3.78
29.75,34.78,-5.0
29.77,38.69,-5.69
29.78,40.56,-6.19
29.8,39.63,-6.97
29.81,35.71,-8.49
29.83,29.21,-10.92
29.84,20.85,-13.93
29.86,11.32,-16.71
29.88,1.16,-18.12
29.89,-9.23,-17.08
29.91,-19.43,-12.99
29.92,-28.75,-5.97
29.94,-36.41,3.15
29.95,-41.7,13.14
29.97,-44.26,22.7
29.98,-44.29,30.8
30.0,-42.47,36.89
30.02,-39.62,40.82
30.03,-36.49,42.73
30.05,-33.49,42.95
30.06,-30.61,41.81
30.08,-27.56,39.65
30.09,-23.93,36.75
30.11,-19.36,33.3
30.13,-13.71,29.42
30.14,-7.05,25.22
30.16,0.29,20.81
30.17,7.75,16.37
30.19,14.58,12.1
30.2,20.09,8.24
30.22,23.78,4.96
30.23,25.49,2.32
30.25,25.49,0.23
30.27,24.36,-1.58
30.28,22.81,-3.46
30.3,21.46,-5.76
30.31,20.75,-8.65
30.33,20.9,-11.97
30.34,21.99,-15.13
30.36,23.92,-17.26
30.38,26.59,-17.4
30.39,29.81,-14.9
30.41,33.4,-9.65
30.42,37.16,-2.16
30.44,40.95,6.54
30.45,44.83,15.25
30.47,49.02,22.93
30.48,53.96,28.89
30.5,60.05,32.93
30.52,67.44,35.13
30.53,75.69,35.75
30.55,83.74,35.04
30.56,90.13,33.22
30.58,93.46,30.46
30.59,92.88,26.98
30.61,88.3,23.07
30.63,80.42,19.03
30.64,70.28,15.07
30.66,58.97,11.32
30.67,47.39,7.8
30.69,36.21,4.47
30.7,26.1,1.3
30.72,17.77,-1.61
30.73,11.83,-4.14
30.75,8.5,-6.25
30.77,7.44,-8.01
30.78,7.76,-9.74
30.8,8.25,-11.8
30.81,7.9,-14.42
30.83,6.15,-17.42
30.84,3.16,-20.15
30.86,-0.41,-21.6
30.88,-3.54,-20.76
30.89,-5.36,-17.06
30.91,-5.36,-10.59
30.92,-3.54,-2.2
30.94,-0.32,6.85
30.95,3.7,15.27
30.97,8.09,22.16
30.98,12.76,27.09
31.0,18.0,30.1
31.02,24.32,31.41
31.03,31.96,31.24
31.05,40.69,29.77
31.06,49.4,27.17
31.08,56.3,23.71
31.09,59.29,19.74
31.11,56.54,15.65
31.13,47.23,11.74
31.14,31.94,8.13
31.16,12.63,4.79
31.17,-7.96,1.67
31.19,-27.16,-1.28
31.2,-43.23,-3.97
31.22,-55.77,-6.29
31.23,-65.39,-8.15
31.25,-73.1,-9.65
31.27,-79.51,-11.04
31.28,-84.52,-12.68
31.3,-87.64,-14.85
31.31,-88.52,-17.56
31.33,-87.45,-20.38
31.34,-85.43,-22.46
31.36,-83.73,-22.77
31.38,-83.28,-20.48
31.39,-84.24,-15.3
31.41,-86.06,-7.65
31.42,-87.82,1.41
31.44,-88.65,10.55
31.45,-87.99,18.55
31.47,-85.63,24.61
31.48,-81.63,28.45
31.5,-76.25,30.16
31.52,-69.91,30.07
31.53,-63.31,28.53
31.55,-57.23,25.84
31.56,-52.34,22.3
31.58,-48.9,18.22
31.59,-46.6,13.94
31.61,-44.73,9.76
31.63,-42.49,5.89
31.64,-39.22,2.39
31.66,-34.49,-0.8
31.67,-28.06,-3.76
31.69,-19.69,-6.5
31.7,-9.15,-8.93
31.72,3.46,-10.9
31.73,17.55,-12.34
31.75,31.93,-13.33
31.77,45.04,-14.23
31.78,55.44,-15.46
31.8,62.3,-17.35
31.81,65.51,-19.79
31.83,65.67,-22.18
31.84,63.65,-23.49
31.86,60.24,-22.66
31.88,56.05,-19.03
31.89,51.51,-12.61
31.91,46.91,-4.15
31.92,42.58,5.12
31.94,38.75,13.9
31.95,35.52,21.15
31.97,32.8,26.33
31.98,30.3,29.39
32.0,27.62,30.53
32.02,24.38,30.1
32.03,20.26,28.44
32.05,15.14,25.85
32.06,9.21,22.59
32.08,3.01,18.91
32.09,-2.69,14.99
32.11,-7.12,10.96
32.13,-9.74,6.92
32.14,-10.57,3.0
32.16,-10.19,-0.7
32.17,-9.58,-4.05
32.19,-9.75,-6.92
32.2,-11.34,-9.27
32.22,-14.44,-11.13
32.23,-18.69,-12.66
32.25,-23.48,-14.11
32.27,-28.21,-15.76
32.28,-32.59,-17.81
32.3,-36.56,-20.24
32.31,-40.23,-22.73
32.33,-43.7,-24.6
32.34,-46.98,-24.98
32.36,-49.98,-23.11
32.38,-52.59,-18.63
32.39,-54.77,-11.82
32.41,-56.64,-3.53
32.42,-58.4,5.01
32.44,-60.25,12.66
32.45,-62.14,18.6
32.47,-63.72,22.54
32.48,-64.41,24.62
32.5,-63.52,25.23
32.52,-60.65,24.7
32.53,-55.85,23.27
32.55,-49.68,21.01
32.56,-42.95,17.91
32.58,-36.38,14.07
32.59,-30.31,9.73
32.61,-24.76,5.23
32.63,-19.55,0.96
32.64,-14.61,-2.81
32.66,-10.07,-5.94
32.67,-6.21,-8.45
32.69,-3.22,-10.47
32.7,-1.01,-12.12
32.72,0.83,-13.5
32.73,2.84,-14.71
32.75,5.47,-15.93
32.77,8.89,-17.39
32.78,12.91,-19.34
32.8,17.01,-21.81
32.81,20.64,-24.43
32.83,23.4,-26.41
32.84,25.25,-26.75
32.86,26.45,-24.58
32.88,27.49,-19.58
32.89,28.81,-12.18
32.91,30.59,-3.42
32.92,32.67,5.33
32.94,34.67,12.91
32.95,36.28,18.62
32.97,37.44,22.31
32.98,38.42,24.22
33.0,39.63,24.74
33.02,41.38,24.13
33.03,43.71,22.55
33.05,46.35,20.05
33.06,48.96,16.72
33.08,51.32,12.76
33.09,53.52,8.48
33.11,55.91,4.24
33.13,58.83,0.32
33.14,62.42,-3.1
33.16,66.39,-6.01
33.17,70.14,-8.48
33.19,72.94,-10.57
33.2,74.27,-12.33
33.22,74.03,-13.74
33.23,72.64,-14.88
33.25,70.95,-15.96
33.27,70.06,-17.32
33.28,70.98,-19.28
33.3,74.32,-21.84
33.31,80.06,-24.49
33.33,87.4,-26.24
33.34,94.92,-25.92
33.36,100.92,-22.72
33.38,103.88,-16.56
33.39,102.9,-8.23
33.41,97.88,0.88
33.42,89.42,9.33
33.44,78.47,16.09
33.45,65.93,20.76
33.47,52.34,23.47
33.48,37.88,24.65
33.5,22.52,24.68
33.52,6.4,23.81
33.53,-10.08,22.15
33.55,-26.19,19.78
33.56,-41.11,16.78
33.58,-54.39,13.28
33.59,-66.33,9.44
33.61,-78.09,5.47
33.63,-91.37,1.6
33.64,-107.56,-1.95
33.66,-126.95,-5.02
33.67,-148.19,-7.58
33.69,-168.41,-9.7
33.7,-184.06,-11.52
33.72,-192.17,-13.15
33.73,-191.3,-14.72
33.75,-181.95,-16.4
33.77,-166.19,-18.4
33.78,-146.76,-20.85
33.8,-126.3,-23.64
33.81,-106.74,-26.22
33.83,-89.25,-27.66
33.84,-74.36,-26.91
33.86,-62.22,-23.27
33.88,-52.6,-16.73
33.89,-44.97,-8.11
33.91,-38.6,1.28
33.92,-32.72,10.04
33.94,-26.85,17.13
33.95,-20.84,22.14
33.97,-14.91,25.09
33.98,-9.42,26.29
34.0,-4.69,26.07
34.02,-0.68,24.69
34.03,2.92,22.36
34.05,6.54,19.33
34.06,10.61,15.87
34.08,15.45,12.23
34.09,21.26,8.58
34.11,28.16,4.96
34.13,36.12,1.35
34.14,44.91,-2.22
34.16,53.98,-5.63
34.17,62.47,-8.7
34.19,69.4,-11.21
34.2,74.04,-13.05
34.22,76.22,-14.28
34.23,76.47,-15.15
34.25,76.07,-16.09
34.27,76.56,-17.56
34.28,79.42,-19.81
34.3,85.5,-22.71
34.31,94.7,-25.64
34.33,105.9,-27.57
34.34,117.1,-27.43
34.36,125.88,-24.45
34.38,129.91,-18.57
34.39,127.58,-10.41
34.41,118.31,-1.15
34.42,102.74,7.92
34.44,82.64,15.8
34.45,60.66,21.9
34.47,39.84,26.1
34.48,23.02,28.47
34.5,11.96,29.15
34.52,6.49,28.27
34.53,4.21,26.05
34.55,0.95,22.78
34.56,-7.71,18.94
34.58,-24.53,14.99
34.59,-49.17,11.26
34.61,-77.96,7.87
34.63,-105.21,4.74
34.64,-125.39,1.72
34.66,-135.28,-1.27
34.67,-134.82,-4.17
34.69,-126.63,-6.8
34.7,-114.48,-9.05
34.72,-101.77,-10.89
34.73,-90.7,-12.51
34.75,-82.28,-14.26
34.77,-76.94,-16.47
34.78,-75.0,-19.34
34.8,-76.7,-22.74
34.81,-81.77,-26.15
34.83,-89.06,-28.71
34.84,-96.44,-29.44
34.86,-101.4,-27.52
34.88,-101.91,-22.67
34.89,-97.12,-15.26
34.91,-87.79,-6.29
34.92,-75.92,2.95
34.94,-63.89,11.26
34.95,-53.56,17.83
34.97,-45.72,22.32
34.98,-40.06,24.81
35.0,-35.65,25.6
35.02,-31.58,25.01
35.03,-27.4,23.35
35.05,-23.18,20.85
35.06,-19.32,17.76
35.08,-16.11,14.32
35.09,-13.49,10.72
35.11,-11.11,7.06
35.13,-8.5,3.39
35.14,-5.28,-0.26
35.16,-1.41,-3.86
35.17,2.82,-7.28
35.19,6.91,-10.36
35.2,10.37,-12.95
35.22,13.02,-15.02
35.23,15.1,-16.63
35.25,17.32,-18.06
35.27,20.65,-19.64
35.28,25.96,-21.67
35.3,33.62,-24.22
35.31,43.39,-27.04
35.33,54.47,-29.48
35.34,65.84,-30.66
35.36,76.7,-29.69
35.38,86.58,-25.98
35.39,95.42,-19.53
35.41,103.24,-10.92
35.42,109.96,-1.25
35.44,115.39,8.17
35.45,119.33,16.23
35.47,121.89,22.2
35.48,123.51,25.86
35.5,125.01,27.42
35.52,127.24,27.28
35.53,130.7,25.92
35.55,135.36,23.72
35.56,140.61,20.92
35.58,145.66,17.72
35.59,149.89,14.26
35.61,153.18,10.63
35.63,155.98,6.94
35.64,159.14,3.25
35.66,163.47,-0.35
35.67,169.42,-3.7
35.69,176.78,-6.63
35.7,184.7,-8.98
35.72,191.87,-10.72
35.73,196.78,-12.01
35.75,197.96,-13.17
35.77,194.11,-14.62
35.78,184.19,-16.7
35.8,167.52,-19.55
35.81,143.96,-22.98
35.83,114.04,-26.43
35.84,78.91,-29.02
35.86,40.14,-29.78
35.88,-0.76,-27.92
35.89,-42.62,-23.07
35.91,-84.92,-15.56
35.92,-127.51,-6.32
35.94,-170.29,3.38
35.95,-212.71,12.26
35.97,-253.71,19.41
35.98,-291.91,24.42
36.0,-325.94,27.3
36.02,-354.71,28.29
36.03,-377.43,27.71
36.05,-393.48,25.83
36.06,-402.32,22.95
36.08,-403.56,19.37
36.09,-397.25,15.46
36.11,-384.11,11.52
36.13,-365.47,7.68
36.14,-343.0,3.98
36.16,-318.37,0.37
36.17,-292.83,-3.17
36.19,-267.21,-6.5
36.2,-241.84,-9.42
36.22,-216.89,-11.75
36.23,-192.44,-13.44
36.25,-168.5,-14.67
36.27,-145.0,-15.78
36.28,-121.84,-17.19
36.3,-99.01,-19.25
36.31,-76.62,-22.08
36.33,-55.03,-25.44
36.34,-34.61,-28.67
36.36,-15.63,-30.78
36.38,1.93,-30.75
36.39,18.55,-27.83
36.41,35.07,-21.85
36.42,52.46,-13.31
36.44,71.48,-3.34
36.45,92.53,6.68
36.47,115.31,15.5
36.48,138.95,22.3
36.5,162.25,26.8
36.52,183.92,29.12
36.53,202.89,29.64
36.55,218.24,28.73
36.56,229.26,26.76
36.58,235.24,23.97
36.59,235.5,20.56
36.61,229.49,16.68
36.63,217.1,12.51
36.64,198.81,8.28
36.66,175.71,4.22
36.67,149.42,0.52
36.69,121.99,-2.67
36.7,95.79,-5.28
36.72,73.26,-7.34
36.73,56.6,-8.96
36.75,47.07,-10.28
36.77,44.4,-11.48
36.78,46.39,-12.67
36.8,49.27,-13.96
36.81,49.08,-15.35
36.83,43.04,-16.76
36.84,30.76,-17.91
36.86,14.24,-18.21
36.88,-3.14,-16.88
36.89,-18.33,-13.08
36.91,-29.98,-6.22
36.92,-38.82,3.75
36.94,-47.05,16.23
36.95,-56.9,30.18
36.97,-69.52,44.44
36.98,-84.48,58.27
37.0,-100.03,71.56
37.02,-113.96,84.88
37.03,-124.52,99.19
37.05,-130.9,115.43
37.06,-133.23,134.23
37.08,-132.13,155.7
37.09,-128.24,179.4
37.11,-121.83,204.43
37.13,-112.88,229.5
37.14,-101.35,252.99
37.16,-87.68,273.18
37.17,-72.92,288.51
37.19,-58.48,298.1
37.2,-45.47,302.14
37.22,-34.15,302.01
37.23,-23.62,299.83
37.25,-12.08,297.61
37.27,2.39,296.16
37.28,20.97,294.55
37.3,43.48,290.26
37.31,68.3,280.24
37.33,92.96,262.36
37.34,114.89,236.43
37.36,132.03,204.28
37.38,143.29,168.88
37.39,148.5,132.97
37.41,148.2,97.9
37.42,143.36,63.46
37.44,135.28,28.44
37.45,125.51,-8.39
37.47,115.73,-47.48
37.48,107.49,-88.18
37.5,101.82,-128.73
37.52,98.84,-166.52
37.53,97.51,-198.46
37.55,95.91,-221.54
37.56,91.85,-233.67
37.58,83.7,-234.7
37.59,71.18,-226.87
37.61,55.65,-214.49
37.63,39.72,-202.43
37.64,26.48,-194.32
37.66,18.38,-191.2
37.67,16.51,-191.37
37.69,20.4,-191.62
37.7,28.47,-189.06
37.72,38.79,-182.69
37.73,49.59,-173.85
37.75,59.66,-165.55
37.77,68.23,-160.97
37.78,74.63,-162.14
37.8,78.16,-169.08
37.81,78.05,-179.73
37.83,73.92,-190.78
37.84,66.32,-198.91
37.86,56.98,-202.03
37.88,48.95,-199.85
37.89,45.94,-193.99
37.91,51.16,-187.28
37.92,65.89,-182.8
37.94,88.55,-183.02
37.95,114.92,-189.45
37.97,139.77,-202.54
37.98,158.91,-221.74
38.0,170.99,-245.3
38.02,177.69,-270.0
38.03,182.57,-291.25
38.05,189.26,-303.84
38.06,200.02,-303.24
38.08,215.45,-286.94
38.09,234.99,-255.35
38.11,257.53,-211.93
38.13,281.63,-162.38
38.14,305.2,-113.19
38.16,325.17,-70.27
38.17,338.0,-37.76
38.19,340.77,-17.58
38.2,332.39,-9.49
38.22,314.15,-11.71
38.23,289.16,-21.55
38.25,261.02,-35.95
38.27,232.68,-51.71
38.28,205.86,-65.67
38.3,181.27,-74.8
38.31,159.01,-76.4
38.33,139.01,-68.68
38.34,121.13,-51.48
38.36,105.04,-26.78
38.38,90.22,1.39
38.39,76.1,28.07
38.41,62.22,49.08
38.42,48.43,62.78
38.44,34.96,70.78
38.45,22.31,77.09
38.47,11.01,86.11
38.48,1.48,100.28
38.5,-6.06,118.68
38.52,-11.63,137.54
38.53,-15.43,152.24
38.55,-17.7,159.76
38.56,-18.65,160.01
38.58,-18.48,155.46
38.59,-17.28,149.27
38.61,-15.17,143.4
38.63,-12.36,137.78
38.64,-9.23,131.0
38.66,-6.41,121.77
38.67,-4.68,110.06
38.69,-4.91,97.36
38.7,-7.8,85.73
38.72,-13.69,76.68
38.73,-22.48,70.4
38.75,-33.56,65.82
38.77,-46.06,61.4
38.78,-59.15,55.9
38.8,-72.36,49.0
38.81,-85.69,41.27
38.83,-99.64,33.77
38.84,-114.93,27.43
38.86,-132.06,22.7
38.88,-151.06,19.41
38.89,-171.33,16.99
38.91,-191.84,14.85
38.92,-211.61,12.62
38.94,-230.09,10.42
38.95,-247.4,8.67
38.97,-264.32,7.87
38.98,-281.94,8.28
39.0,-301.15,9.75
39.02,-322.42,11.75
39.03,-345.66,13.66
39.05,-370.29,14.98
39.06,-395.2,15.5
39.08,-418.8,15.32
39.09,-439.07,14.67
39.11,-453.93,13.81
39.13,-461.89,12.9
39.14,-462.69,11.99
39.16,-457.65,11.11
39.17,-449.16,10.23
39.19,-439.5,9.36
39.2,-429.44,8.48
39.22,-417.61,7.62
39.23,-401.08,6.8
39.25,-376.9,6.04
39.27,-343.84,5.38
39.28,-303.36,4.82
39.3,-259.13,4.34
39.31,-215.59,3.91
39.33,-176.16,3.5
39.34,-142.43,3.06
39.36,-114.19,2.58
39.38,-90.34,2.04
39.39,-69.84,1.4
39.41,-51.91,0.64
39.42,-36.05,-0.26
39.44,-21.57,-1.27
39.45,-7.55,-2.3
39.47,6.87,-3.16
39.48,21.99,-3.66
39.5,37.38,-3.63
39.52,52.16,-3.03
39.53,65.46,-1.97
39.55,76.81,-0.63
39.56,86.12,0.76
39.58,93.56,2.1
39.59,99.38,3.43
39.61,104.31,4.9
39.63,109.89,6.55
39.64,118.42,8.27
39.66,132.37,9.75
39.67,153.29,10.64
39.69,180.76,10.72
39.7,212.37,10.02
39.72,244.58,8.82
39.73,274.08,7.52
39.75,298.93,6.43
39.77,318.5,5.65
39.78,332.58,5.09
39.8,340.37,4.53
39.81,340.37,3.8
39.83,331.24,2.9
39.84,313.26,1.95
39.86,288.94,1.09
39.88,262.35,0.42
39.89,237.23,-0.07
39.91,215.14,-0.49
39.92,194.78,-0.93
39.94,173.09,-1.47
39.95,147.26,-2.13
39.97,116.46,-2.9
39.98,82.2,-3.75
40.0,47.2,-4.62
40.02,13.61,-5.39
40.03,-18.43,-5.93
40.05,-50.79,-6.1
40.06,-86.05,-5.81
40.08,-125.92,-5.08
40.09,-170.02,-4.06
40.11,-216.16,-2.87
40.13,-261.38,-1.61
40.14,-303.5,-0.28
40.16,-342.08,1.15
40.17,-378.37,2.67
40.19,-414.52,4.16
40.2,-452.62,5.42
40.22,-494.14,6.23
40.23,-539.65,6.5
40.25,-588.57,6.26
40.27,-638.6,5.63
40.28,-685.23,4.78
40.3,-721.88,3.79
40.31,-741.34,2.65
40.33,-738.25,1.36
40.34,-711.66,-0.03
40.36,-665.97,-1.4
40.38,-609.52,-2.56
40.39,-551.34,-3.36
40.41,-497.72,-3.73
40.42,-450.46,-3.72
40.44,-407.61,-3.53
40.45,-365.92,-3.35
40.47,-323.32,-3.34
40.48,-280.03,-3.57
40.5,-237.68,-4.03
40.52,-197.63,-4.67
40.53,-159.75,-5.47
40.55,-122.45,-6.37
40.56,-83.82,-7.26
40.58,-43.06,-7.96
40.59,-1.3,-8.29
40.61,38.54,-8.07
40.63,72.83,-7.26
40.64,98.61,-5.97
40.66,114.71,-4.38
40.67,121.99,-2.65
40.69,122.65,-0.86
40.7,119.03,0.96
40.72,112.24,2.77
40.73,101.44,4.45
40.75,84.46,5.85
40.77,59.3,6.78
40.78,26.03,7.15
40.8,-12.13,6.99
40.81,-49.04,6.44
40.83,-77.4,5.57
40.84,-91.07,4.48
40.86,-87.03,3.19
40.88,-66.1,1.82
40.89,-32.39,0.49
40.91,8.14,-0.59
40.92,49.23,-1.34
40.94,85.64,-1.79
40.95,113.88,-2.03
40.97,132.5,-2.22
40.98,142.1,-2.41
41.0,145.0,-2.61
41.02,144.73,-2.82
41.03,145.27,-3.06
41.05,150.17,-3.48
41.06,161.66,-4.14
41.08,180.24,-5.05
41.09,204.71,-6.02
41.11,232.66,-6.74
41.13,261.41,-6.9
41.14,288.76,-6.35
41.16,313.58,-5.18
41.17,335.75,-3.62
41.19,355.63,-1.96
41.2,373.35,-0.35
41.22,388.39,1.16
41.23,399.64,2.65
41.25,405.83,4.17
41.27,406.09,5.64
41.28,400.06,6.88
41.3,387.82,7.64
41.31,369.65,7.77
41.33,345.83,7.26
41.34,316.88,6.27
41.36,283.82,5.03
41.38,248.39,3.76
41.39,212.66,2.57
41.41,178.23,1.48
41.42,145.41,0.51
41.44,113.01,-0.33
41.45,79.01,-0.97
41.47,41.8,-1.37
41.48,1.3,-1.54
41.5,-40.62,-1.6
41.52,-80.64,-1.75
41.53,-115.16,-2.13
41.55,-141.26,-2.84
41.56,-157.17,-3.83
41.58,-162.02,-4.99
41.59,-155.21,-6.15
41.61,-136.08,-7.2
41.63,-103.99,-8.06
41.64,-58.8,-8.69
41.66,-1.16,-9.02
41.67,67.46,-8.96
41.69,144.87,-8.44
41.7,228.11,-7.39
41.72,313.01,-5.83
41.73,393.81,-3.89
41.75,463.46,-1.72
41.77,514.96,0.48
41.78,543.32,2.49
41.8,547.33,4.19
41.81,529.99,5.46
41.83,497.36,6.29
41.84,456.33,6.67
41.86,412.31,6.61
41.88,368.27,6.1
41.89,324.94,5.16
41.91,282.06,3.85
41.92,239.53,2.32
41.94,198.05,0.74
41.95,158.95,-0.69
41.97,123.51,-1.86
41.98,92.47,-2.72
42.0,65.88,-3.29
42.02,43.64,-3.6
42.03,25.81,-3.71
42.05,12.96,-3.69
42.06,5.9,-3.7
42.08,4.88,-3.92
42.09,8.84,-4.54
42.11,14.86,-5.62
42.13,18.72,-7.02
42.14,15.99,-8.42
42.16,3.61,-9.46
42.17,-19.12,-9.87
42.19,-50.56,-9.63
42.2,-87.67,-8.96
42.22,-127.44,-8.17
42.23,-167.82,-7.52
42.25,-207.7,-7.05
42.27,-246.26,-6.69
42.28,-282.22,-6.28
42.3,-313.73,-5.8
42.31,-338.94,-5.3
42.33,-356.9,-5.05
42.34,-368.13,-5.39
42.36,-374.54,-6.72
42.38,-378.59,-9.4
42.39,-382.13,-13.7
42.41,-385.49,-19.64
42.42,-387.29,-26.95
42.44,-384.84,-34.95
42.45,-375.05,-42.78
42.47,-355.57,-49.58
42.48,-325.68,-54.77
42.5,-286.66,-58.25
42.52,-241.6,-60.37
42.53,-194.61,-61.72
42.55,-149.69,-62.84
42.56,-109.86,-63.93
42.58,-76.76,-64.85
42.59,-50.7,-65.18
42.61,-31.41,-64.46
42.63,-18.31,-62.3
42.64,-10.76,-58.53
42.66,-7.73,-53.17
42.67,-7.5,-46.33
42.69,-7.74,-38.16
42.7,-6.01,-28.81
42.72,-0.63,-18.44
42.73,8.72,-7.27
42.75,20.81,4.36
42.77,33.31,15.93
42.78,43.7,26.76
42.8,50.16,36.13
42.81,52.36,43.33
42.83,51.62,47.85
42.84,50.63,49.39
42.86,52.71,47.93
42.88,60.7,43.73
42.89,75.94,37.39
42.91,97.67,29.78
42.92,123.19,22.01
42.94,148.71,15.17
42.95,170.63,10.13
42.97,186.56,7.26
42.98,195.67,6.32
43.0,198.3,6.54
43.02,195.16,6.95
43.03,186.67,6.59
43.05,173.09,4.85
43.06,154.98,1.45
43.08,133.71,-3.51
43.09,111.61,-9.61
43.11,91.29,-16.11
43.13,74.59,-22.1
43.14,62.01,-26.72
43.16,52.44,-29.44
43.17,43.9,-30.31
43.19,34.44,-29.93
43.2,22.92,-29.29
43.22,9.28,-29.23
43.23,-5.48,-30.05
43.25,-19.68,-31.26
43.27,-31.12,-31.66
43.28,-37.53,-29.71
43.3,-37.17,-24.13
43.31,-29.41,-14.38
43.33,-15.45,-0.98
43.34,1.88,14.64
43.36,18.77,30.49
43.38,31.62,44.51
43.39,37.99,55.08
43.41,37.01,61.24
43.42,29.07,62.71
43.44,15.03,59.73
43.45,-4.08,52.94
43.47,-27.31,43.36
43.48,-53.36,32.33
43.5,-80.27,21.33
43.52,-105.5,11.66
43.53,-126.63,3.96
43.55,-141.98,-2.03
43.56,-151.32,-7.31
43.58,-155.94,-13.13
43.59,-158.08,-20.34
43.61,-160.33,-29.01
43.63,-164.72,-38.42
43.64,-172.01,-47.41
43.66,-181.37,-54.81
43.67,-190.42,-59.68
43.69,-195.88,-61.3
43.7,-194.56,-59.21
43.72,-184.59,-53.28
43.73,-166.08,-43.95
43.75,-141.12,-32.31
43.77,-113.18,-19.96
43.78,-86.03,-8.47
43.8,-62.85,1.16
43.81,-45.76,8.87
43.83,-35.8,15.37
43.84,-33.15,21.69
43.86,-37.48,28.77
43.88,-47.8,37.18
43.89,-62.48,47.24
43.91,-79.26,59.29
43.92,-95.4,73.79
43.94,-108.35,91.17
43.95,-116.37,111.61
43.97,-118.93,134.73
43.98,-116.97,159.6
44.0,-112.53,184.96
44.02,-108.12,209.57
44.03,-106.01,232.44
44.05,-107.53,252.8
44.06,-112.41,270.06
44.08,-118.7,283.77
44.09,-123.14,293.83
44.11,-122.1,300.62
44.13,-112.98,304.97
44.14,-95.24,307.76
44.16,-70.89,309.19
44.17,-44.0,308.19
44.19,-19.49,302.43
44.2,-1.5,289.12
44.22,7.55,266.03
44.23,7.25,232.59
44.25,-1.31,190.19
44.27,-16.4,141.55
44.28,-36.27,89.97
44.3,-59.21,38.96
44.31,-83.36,-7.68
44.33,-106.69,-45.95
44.34,-127.02,-72.42
44.36,-142.61,-85.92
44.38,-152.59,-88.99
44.39,-157.11,-87.89
44.41,-157.15,-90.28
44.42,-153.92,-101.55
44.44,-148.29,-121.56
44.45,-140.44,-144.0
44.47,-129.92,-159.05
44.48,-115.81,-158.26
44.5,-97.35,-138.92
44.52,-74.26,-105.64
44.53,-46.97,-68.39
44.55,-16.6,-38.34
44.56,15.42,-23.74
44.58,48.05,-27.73
44.59,81.05,-48.42
44.61,114.95,-80.57
44.63,150.34,-117.66
44.64,186.95,-153.62
44.66,222.83,-183.9
44.67,254.46,-206.25
44.69,277.48,-220.61
44.7,288.09,-228.46
44.72,284.33,-231.89
44.73,266.75,-232.55
44.75,238.26,-231.22
44.77,203.23,-228.07
44.78,166.1,-223.41
44.8,130.36,-217.95
44.81,98.22,-212.5
44.83,70.82,-206.97
44.84,48.8,-199.71
44.86,32.77,-187.81
44.88,23.33,-168.46
44.89,20.73,-140.72
44.91,24.58,-106.44
44.92,33.88,-69.82
44.94,47.46,-35.6
44.95,64.67,-7.06
44.97,85.42,15.18
44.98,109.83,32.72
45.0,137.11,47.94
45.02,164.8,62.23
45.03,188.69,75.12
45.05,204.08,84.43
45.06,207.43,87.7
45.08,197.82,83.64
45.09,177.48,73.16
45.11,150.97,59.25
45.13,123.77,45.8
45.14,100.61,36.12
45.16,84.25,31.79
45.17,75.07,32.36
45.19,71.43,35.84
45.2,70.47,39.52
45.22,69.06,40.96
45.23,64.63,38.68
45.25,55.76,32.8
45.27,42.45,25.24
45.28,26.2,19.59
45.3,9.72,20.26
45.31,-3.55,30.92
45.33,-10.4,52.85
45.34,-8.94,83.77
45.36,0.61,118.13
45.38,15.74,148.81
45.39,32.47,169.64
45.41,46.63,177.53
45.42,55.17,173.22
45.44,56.72,160.41
45.45,51.47,143.89
45.47,40.27,127.54
45.48,23.91,113.15
45.5,3.01,100.4
45.52,-21.59,87.69
45.53,-48.35,73.35
45.55,-75.06,56.38
45.56,-99.36,36.67
45.58,-119.65,14.67
45.59,-135.36,-8.99
45.61,-147.58,-33.75
45.63,-158.77,-59.11
45.64,-171.96,-84.42
45.66,-190.11,-108.69
45.67,-214.83,-130.54
45.69,-246.25,-148.26
45.7,-282.4,-160.2
45.72,-318.85,-165.22
45.73,-348.88,-163.08
45.75,-365.53,-154.58
45.77,-363.96,-141.41
45.78,-343.25,-125.65
45.8,-306.7,-109.5
45.81,-260.0,-94.88
45.83,-209.42,-83.26
45.84,-159.89,-75.48
45.86,-114.04,-71.71
45.88,-71.73,-71.34
45.89,-32.38,-73.22
45.91,3.77,-76.14
45.92,35.78,-79.52
45.94,62.64,-84.21
45.95,85.01,-92.51
45.97,103.95,-107.39
45.98,119.84,-130.94
46.0,132.2,-162.74
46.02,142.51,-199.23
46.03,151.12,-234.6
46.05,156.72,-262.82
46.06,157.09,-280.01
46.08,149.89,-285.63
46.09,137.03,-281.87
46.11,121.88,-271.84
46.13,108.44,-257.53
46.14,101.3,-238.79
46.16,109.92,-214.05
46.17,139.6,-182.29
46.19,187.73,-144.77
46.2,244.77,-105.6
46.22,296.94,-70.57
46.23,337.79,-44.82
46.25,364.82,-30.68
46.27,378.92,-26.75
46.28,384.42,-28.59
46.3,395.64,-30.63
46.31,422.4,-28.31
46.33,464.21,-19.52
46.34,511.81,-4.85
46.36,550.47,13.12
46.38,576.86,31.05
46.39,591.64,46.0
46.41,597.22,56.42
46.42,597.88,62.46
46.44,608.96,66.06
46.45,639.75,70.08
46.47,687.63,77.29
46.48,740.95,89.14
46.5,783.08,105.0
46.52,812.88,122.08
46.53,833.36,136.11
46.55,847.44,142.55
46.56,784.37,137.85
46.58,614.78,120.36
46.59,368.18,90.78
46.61,110.71,52.23
46.63,-72.69,9.79
46.64,-198.65,-30.23
46.66,-289.74,-61.48
46.67,-361.66,-78.99
46.69,-430.66,-80.35
46.7,-500.36,-66.33
46.72,-558.89,-40.39
46.73,-596.69,-7.53
46.75,-612.76,27.4
46.77,-613.08,60.78
46.78,-608.83,90.65
46.8,-598.07,116.47
46.81,-578.55,138.45
46.83,-551.67,156.98
46.84,-520.74,172.26
46.86,-481.94,184.17
46.88,-434.04,192.33
46.89,-381.18,196.31
46.91,-331.08,195.96
46.92,-293.6,191.41
46.94,-267.21,183.58
46.95,-249.07,173.84
46.97,-238.08,163.83
46.98,-233.49,155.01
47.0,-229.54,148.36
47.02,-221.97,144.23
47.03,-210.32,142.47
47.05,-197.28,142.67
47.06,-187.73,144.31
47.08,-180.01,147.01
47.09,-171.91,150.42
47.11,-162.6,154.35
47.13,-151.85,158.72
47.14,-138.05,163.57
47.16,-121.17,168.94
47.17,-103.81,174.72
47.19,-90.45,180.44
47.2,-86.18,185.25
47.22,-91.67,188.17
47.23,-105.42,188.35
47.25,-124.62,185.28
47.27,-145.13,179.0
47.28,-161.5,169.89
47.3,-168.65,158.54
47.31,-162.93,145.42
47.33,-142.71,130.82
47.34,-108.81,114.93
47.36,-63.31,98.08
47.38,-10.32,80.78
47.39,44.45,63.75
47.41,94.94,47.57
47.42,135.92,32.36
47.44,164.02,17.54
47.45,178.05,1.88
47.47,178.67,-16.19
47.48,167.82,-38.1
47.5,147.91,-64.63
47.52,121.39,-95.36
47.53,90.47,-128.41
47.55,57.1,-160.43
47.56,23.11,-187.09
47.58,-9.81,-204.11
47.59,-40.11,-208.44
47.61,-66.71,-199.21
47.63,-89.13,-178.09
47.64,-107.94,-148.67
47.66,-124.56,-115.44
47.67,-140.53,-82.57
47.69,-156.7,-53.29
47.7,-172.1,-29.82
47.72,-183.99,-13.46
47.73,-188.53,-4.69
47.75,-182.34,-2.98
47.77,-163.96,-6.63
47.78,-134.74,-12.78
47.8,-98.55,-18.13
47.81,-60.52,-19.9
47.83,-25.47,-16.83
47.84,3.31,-9.7
47.86,24.56,-0.87
47.88,38.63,6.53
47.89,46.61,9.85
47.91,49.56,7.82
47.92,48.21,0.93
47.94,43.24,-9.01
47.95,35.73,-19.67
47.97,27.28,-29.18
47.98,19.76,-36.67
48.0,14.67,-42.04
48.02,12.47,-45.37
48.03,12.24,-46.3
48.05,11.96,-43.98
48.06,9.37,-37.69
48.08,3.03,-27.83
48.09,-6.74,-16.46
48.11,-17.59,-6.79
48.13,-25.8,-1.81
48.14,-27.46,-2.6
48.16,-20.13,-7.62
48.17,-3.84,-13.25
48.19,18.87,-15.57
48.2,43.66,-12.17
48.22,65.96,-3.26
48.23,82.19,8.7
48.25,90.54,20.3
48.27,90.86,28.64
48.28,83.94,32.41
48.3,70.84,31.96
48.31,52.61,28.83
48.33,30.48,24.93
48.34,6.17,22.05
48.36,-17.94,21.49
48.38,-39.21,23.96
48.39,-55.49,29.53
48.41,-65.84,37.31
48.42,-70.98,45.32
48.44,-73.05,50.54
48.45,-74.79,49.66
48.47,-78.37,40.27
48.48,-84.42,22.14
48.5,-91.65,-2.18
48.52,-97.2,-27.8
48.53,-97.87,-49.03
48.55,-91.33,-61.28
48.56,-77.1,-62.45
48.58,-56.64,-53.27
48.59,-32.82,-36.39
48.61,-8.8,-15.1
48.63,12.65,7.77
48.64,29.73,30.32
48.66,41.53,51.27
48.67,47.83,69.72
48.69,48.96,85.0
48.7,45.7,96.98
48.72,39.34,106.29
48.73,31.55,114.28
48.75,24.05,122.53
48.77,18.21,132.19
48.78,14.72,143.46
48.8,13.43,155.56
48.81,13.5,167.16
48.83,13.67,176.84
48.84,12.58,183.65
48.86,9.15,187.19
48.88,3.05,187.44
48.89,-5.04,184.53
48.91,-13.38,178.48
48.92,-19.59,169.32
48.94,-21.35,157.33
48.95,-17.22,143.39
48.97,-7.17,129.05
48.98,7.37,116.32
49.0,24.01,107.09
49.02,40.14,102.54
49.03,53.55,102.75
49.05,62.89,106.64
49.06,67.66,112.3
49.08,68.05,117.39
49.09,64.72,119.59
49.11,58.6,116.94
49.13,50.86,108.16
49.14,42.71,92.8
49.16,35.19,71.17
49.17,29.02,44.28
49.19,24.37,13.65
49.2,20.99,-18.92
49.22,18.26,-51.36
49.23,15.48,-81.33
49.25,12.1,-106.28
49.27,7.93,-123.91
49.28,3.35,-132.84
49.3,-0.63,-133.42
49.31,-2.64,-128.15
49.33,-1.32,-121.35
49.34,4.19,-117.92
49.36,13.92,-121.81
49.38,26.99,-134.91
49.39,41.85,-156.82
49.41,56.66,-185.49
49.42,69.66,-218.06
49.44,79.4,-251.51
49.45,84.89,-282.83
49.47,85.76,-309.05
49.48,82.31,-327.48
49.5,75.58,-336.41
49.52,67.09,-335.59
49.53,58.42,-326.46
49.55,50.7,-311.38
49.56,44.38,-292.5
49.58,39.26,-270.76
49.59,34.86,-245.97
49.61,30.86,-217.64
49.63,27.14,-186.38
49.64,23.64,-154.57
49.66,20.16,-126.28
49.67,16.41,-106.02
49.69,12.37,-97.2
49.7,8.8,-100.99
49.72,7.18,-115.82
49.73,9.31,-137.76
49.75,16.41,-161.46
49.77,28.36,-181.32
49.78,43.51,-192.95
49.8,59.38,-194.08
49.81,73.6,-184.95
49.83,84.71,-168.05
49.84,92.4,-147.02
49.86,97.18,-125.46
49.88,99.85,-106.0
49.89,101.02,-89.78
49.91,101.13,-76.61
49.92,100.63,-65.39
49.94,100.21,-54.61
49.95,100.83,-42.74
49.97,103.35,-28.64
49.98,108.23,-11.69
50.0,115.21,7.87
50.02,123.36,29.03
50.03,131.43,50.07
50.05,138.4,69.1
50.06,144.13,84.6
50.08,149.45,95.76
50.09,156.02,102.64
50.11,165.55,105.82
50.13,179.02,106.12
50.14,196.08,104.21
50.16,215.01,100.65
50.17,233.42,95.88
50.19,249.03,90.28
50.2,260.49,84.16
50.22,267.43,77.68
50.23,270.32,70.89
50.25,269.96,63.76
50.27,267.17,56.4
50.28,262.66,49.12
50.3,257.11,42.42
50.31,251.29,36.72
50.33,245.84,32.14
50.34,240.93,28.39
50.36,236.09,25.01
50.38,230.37,21.67
50.39,222.65,18.47
50.41,212.11,16.03
50.42,198.62,15.18
50.44,182.55,16.56
50.45,164.69,20.32
50.47,145.75,25.95
50.48,126.32,32.46
50.5,106.88,38.61
50.52,88.1,43.3
50.53,70.76,45.72
50.55,55.53,45.52
50.56,42.62,42.85
50.58,31.47,38.25
50.59,20.89,32.5
50.61,9.44,26.4
50.63,-3.87,20.63
50.64,-19.22,15.69
50.66,-36.12,11.91
50.67,-53.7,9.59
50.69,-71.25,8.97
50.7,-88.25,10.35
50.72,-104.38,13.83
50.73,-119.08,19.35
50.75,-131.38,26.5
50.77,-140.08,34.54
50.78,-144.25,42.43
50.8,-143.83,49.04
50.81,-139.89,53.4
50.83,-134.43,55.05
50.84,-129.59,54.2
50.86,-126.89,51.66
50.88,-126.63,48.77
50.89,-127.9,46.83
50.91,-129.18,46.79
50.92,-129.08,48.93
50.94,-126.95,52.8
50.95,-123.16,57.43
50.97,-119.01,61.63
50.98,-116.42,64.37
51.0,-117.51,64.88
51.02,-124.23,62.89
51.03,-137.99,58.49
51.05,-159.42,52.04
51.06,-188.17,44.03
51.08,-222.93,34.95
51.09,-261.93,25.27
51.11,-303.49,15.37
51.13,-346.5,5.6
51.14,-390.3,-3.83
51.16,-434.0,-12.74
51.17,-475.61,-21.11
51.19,-511.54,-28.91
51.2,-537.16,-36.08
51.22,-548.11,-42.47
51.23,-541.92,-47.88
51.25,-518.89,-52.12
51.27,-481.8,-55.11
51.28,-434.69,-57.01
51.3,-381.35,-58.09
51.31,-324.33,-58.63
51.33,-265.11,-58.78
51.34,-204.87,-58.51
51.36,-145.42,-57.61
51.38,-89.33,-55.8
51.39,-39.48,-52.81
51.41,1.98,-48.46
51.42,34.29,-42.71
51.44,58.12,-35.62
51.45,75.13,-27.47
51.47,87.15,-18.68
51.48,95.63,-9.83
51.5,101.47,-1.56
51.52,105.2,5.66
51.53,107.16,11.75
51.55,107.76,17.12
51.56,107.4,22.64
51.58,106.39,29.46
51.59,104.82,38.57
51.61,102.49,50.51
51.63,98.92,65.21
51.64,93.55,82.06
51.66,85.97,100.11
51.67,76.26,118.36
51.69,65.07,136.02
51.7,53.59,152.52
51.72,42.98,167.46
51.73,33.93,180.43
51.75,26.21,190.98
51.77,18.57,198.66
51.78,9.17,203.23
51.8,-3.68,204.92
51.81,-20.8,204.63
51.83,-41.71,203.87
51.84,-64.63,204.38
51.86,-87.05,207.59
51.88,-106.3,214.08
51.89,-120.13,223.3
51.91,-127.18,233.75
51.92,-126.74,243.48
51.94,-118.79,250.71
51.95,-103.65,254.23
51.97,-82.03,253.51
51.98,-54.98,248.48
52.0,-24.08,239.31
52.02,8.77,226.32
52.03,41.51,209.99
52.05,72.32,190.98
52.06,100.09,170.05
52.08,124.48,147.76
52.09,145.89,124.31
52.11,165.07,99.47
52.13,182.72,72.92
52.14,199.02,44.68
52.16,213.56,15.37
52.17,225.52,-13.83
52.19,234.0,-41.53
52.2,238.39,-66.56
52.22,238.55,-88.28
52.23,234.77,-106.55
52.25,227.63,-121.43
52.27,217.84,-132.93
52.28,206.05,-140.83
52.3,192.94,-144.9
52.31,179.27,-145.19
52.33,165.81,-142.28
52.34,153.28,-137.35
52.36,142.18,-132.11
52.38,132.65,-128.33
52.39,124.36,-127.42
52.41,116.49,-130.04
52.42,107.84,-135.83
52.44,97.07,-143.57
52.45,83.16,-151.57
52.47,65.93,-158.25
52.48,46.3,-162.66
52.5,26.13,-164.7
52.52,7.57,-164.95
52.53,-7.71,-164.27
52.55,-19.11,-163.44
52.56,-27.02,-162.84
52.58,-32.34,-162.55
52.59,-35.8,-162.45
52.61,-37.58,-162.48
52.63,-37.32,-162.68
52.64,-34.65,-163.06
52.66,-29.57,-163.41
52.67,-22.7,-163.22
52.69,-14.99,-161.76
52.7,-7.36,-158.29
52.72,-0.4,-152.35
52.73,5.71,-143.91
52.75,11.07,-133.37
52.77,15.81,-121.49
52.78,19.87,-109.17
52.8,22.96,-97.36
52.81,24.58,-86.94
52.83,24.21,-78.64
52.84,21.52,-72.94
52.86,16.54,-69.95
52.88,9.83,-69.36
52.89,2.33,-70.39
52.91,-4.77,-71.92
52.92,-10.53,-72.83
52.94,-14.41,-72.21
52.95,-16.46,-69.66
52.97,-17.27,-65.3
52.98,-17.66,-59.77
53.0,-18.48,-54.04
53.02,-20.31,-49.07
53.03,-23.44,-45.64
53.05,-27.74,-44.1
53.06,-32.93,-44.38
53.08,-38.57,-46.03
53.09,-44.23,-48.46
53.11,-49.6,-51.19
53.13,-54.39,-54.0
53.14,-58.41,-56.91
53.16,-61.61,-60.05
53.17,-64.17,-63.47
53.19,-66.47,-67.01
53.2,-69.07,-70.29
53.22,-72.58,-72.75
53.23,-77.3,-73.8
53.25,-83.04,-72.92
53.27,-88.93,-69.68
53.28,-93.63,-63.88
53.3,-95.71,-55.59
53.31,-94.16,-45.32
53.33,-88.77,-34.0
53.34,-80.26,-22.82
53.36,-69.93,-12.99
53.38,-59.25,-5.46
53.39,-49.41,-0.71
53.41,-41.16,1.32
53.42,-34.83,1.11
53.44,-30.57,-0.64
53.45,-28.47,-3.27
53.47,-28.56,-6.19
53.48,-30.62,-9.04
53.5,-33.98,-11.68
53.52,-37.58,-14.11
53.53,-40.3,-16.42
53.55,-41.4,-18.77
53.56,-40.8,-21.28
53.58,-39.12,-24.08
53.59,-37.3,-27.25
53.61,-36.22,-30.77
53.63,-36.33,-34.61
53.64,-37.56,-38.66
53.66,-39.41,-42.77
53.67,-41.15,-46.67
53.69,-42.0,-49.97
53.7,-41.27,-52.11
53.72,-38.56,-52.42
53.73,-33.74,-50.3
53.75,-27.06,-45.41
53.77,-18.95,-37.94
53.78,-10.09,-28.53
53.8,-1.22,-18.27
53.81,6.86,-8.29
53.83,13.23,0.48
53.84,17.01,7.56
53.86,17.57,12.87
53.88,14.8,16.59
53.89,9.19,18.99
53.91,1.84,20.22
53.92,-5.96,20.38
53.94,-13.11,19.49
53.95,-18.93,17.7
53.97,-23.28,15.23
53.98,-26.31,12.38
54.0,-28.43,9.4
54.02,-30.09,6.36
54.03,-31.77,3.24
54.05,-33.7,-0.09
54.06,-35.69,-3.65
54.08,-37.03,-7.41
54.09,-36.61,-11.27
54.11,-33.45,-15.18
54.13,-27.14,-19.19
54.14,-18.27,-23.26
54.16,-8.2,-27.02
54.17,1.37,-29.65
54.19,9.11,-29.93
54.2,14.53,-26.78
54.22,18.0,-19.68
54.23,20.46,-9.14
54.25,22.9,3.54
54.27,25.99,16.67
54.28,29.87,28.87
54.3,34.23,39.42
54.31,38.56,48.26
54.33,42.4,55.61
54.34,45.42,61.64
54.36,47.52,66.2
54.38,48.71,68.94
54.39,48.93,69.55
54.41,47.94,67.99
54.42,45.5,64.45
54.44,41.64,59.22
54.45,37.06,52.56
54.47,33.11,44.6
54.48,31.45,35.46
54.5,33.46,25.36
54.52,39.59,14.68
54.53,49.09,3.9
54.55,60.27,-6.54
54.56,71.19,-16.25
54.58,80.18,-24.88
54.59,86.34,-32.03
54.61,89.34,-37.16
54.63,89.31,-39.61
54.64,86.48,-38.88
54.66,81.21,-34.86
54.67,74.02,-27.99
54.69,65.78,-19.18
54.7,57.53,-9.58
54.72,50.16,-0.18
54.73,43.98,8.41
54.75,38.57,16.03
54.77,33.0,22.68
54.78,26.25,28.4
54.8,17.76,32.95
54.81,7.72,35.93
54.83,-2.87,36.95
54.84,-12.45,35.82
54.86,-19.38,32.73
54.88,-22.35,28.17
54.89,-20.84,22.82
54.91,-15.19,17.3
54.92,-6.54,12.14
54.94,3.59,7.61
54.95,13.7,3.77
54.97,22.67,0.5
54.98,29.99,-2.55
55.0,35.49,-5.8
55.02,39.15,-9.73
55.03,40.84,-14.55
55.05,40.45,-20.01
55.06,38.04,-25.23
55.08,34.13,-28.87
55.09,29.62,-29.53
55.11,25.43,-26.3
55.13,22.15,-19.11
55.14,19.69,-8.78
55.16,17.36,3.34
55.17,14.27,15.84
55.19,9.79,27.69
55.2,3.85,38.4
55.22,-3.01,47.88
55.23,-9.87,56.05
55.25,-15.78,62.71
55.27,-20.02,67.4
55.28,-22.43,69.67
55.3,-23.39,69.3
55.31,-23.68,66.49
55.33,-24.26,61.79
55.34,-25.95,55.89
55.36,-29.13,49.4
55.38,-33.67,42.64
55.39,-39.16,35.72
55.41,-45.03,28.69
55.42,-50.91,21.73
55.44,-56.54,15.15
55.45,-61.71,9.22
55.47,-66.17,3.99
55.48,-69.55,-0.75
55.5,-71.48,-5.27
55.52,-71.75,-9.62
55.53,-70.57,-13.31
55.55,-68.5,-15.45
55.56,-66.39,-15.1
55.58,-65.06,-11.78
55.59,-65.04,-5.74
55.61,-66.35,2.19
55.63,-68.39,10.98
55.64,-70.14,19.81
55.66,-70.47,28.31
55.67,-68.52,36.35
55.69,-63.98,43.72
55.7,-57.13,49.94
55.72,-48.73,54.33
55.73,-39.77,56.29
55.75,-31.17,55.66
55.77,-23.67,52.77
55.78,-17.72,48.34
55.8,-13.56,43.12
55.81,-11.23,37.73
55.83,-10.57,32.52
55.84,-11.24,27.65
55.86,-12.77,23.21
55.88,-14.63,19.32
55.89,-16.36,15.98
55.91,-17.79,13.0
55.92,-18.96,10.04
55.94,-20.19,6.74
55.95,-21.84,2.98
55.97,-24.17,-0.83
55.98,-27.19,-3.76
56.0,-30.51,-4.66
56.02,-33.33,-2.58
56.03,-34.66,2.73
56.05,-33.61,10.7
56.06,-29.64,20.04
56.08,-22.88,29.28
56.09,-14.04,37.17
56.11,-4.28,43.0
56.13,5.16,46.53
56.14,13.24,47.76
56.16,19.25,46.73
56.17,22.87,43.51
56.19,23.99,38.36
56.2,22.75,31.84
56.22,19.51,24.79
56.23,14.89,18.1
56.25,9.84,12.38
56.27,5.37,7.73
56.28,2.32,3.8
56.3,0.98,-0.03
56.31,1.09,-4.28
56.33,1.84,-9.21
56.34,2.35,-14.81
56.36,2.02,-20.96
56.38,0.73,-27.44
56.39,-1.11,-34.01
56.41,-2.79,-40.24
56.42,-3.5,-45.45
56.44,-2.67,-48.82
56.45,0.03,-49.61
56.47,4.52,-47.44
56.48,10.43,-42.51
56.5,17.17,-35.56
56.52,23.88,-27.62
56.53,29.66,-19.76
56.55,33.64,-12.75
56.56,35.34,-7.05
56.58,34.7,-2.8
56.59,32.19,-0.02
56.61,28.6,1.38
56.63,24.9,1.45
56.64,21.89,0.38
56.66,20.07,-1.66
56.67,19.69,-4.43
56.69,20.9,-7.65
56.7,23.92,-10.98
56.72,28.99,-14.05
56.73,36.15,-16.5
56.75,44.91,-18.01
56.77,54.2,-18.36
56.78,62.66,-17.48
56.8,69.21,-15.49
56.81,73.69,-12.72
56.83,76.81,-9.6
56.84,79.68,-6.61
56.86,83.15,-4.1
56.88,87.33,-2.12
56.89,91.62,-0.33
56.91,95.42,1.86
56.92,98.71,5.17
56.94,102.35,10.15
56.95,107.67,16.95
56.97,115.6,25.27
56.98,126.05,34.48
57.0,137.94,43.8
57.02,149.95,52.48
57.03,161.35,59.88
57.05,172.47,65.47
57.06,184.48,68.83
57.08,198.43,69.72
57.09,214.36,68.15
57.11,230.92,64.45
57.13,245.76,59.21
57.14,256.56,53.21
57.16,261.84,47.14
57.17,261.41,41.53
57.19,256.05,36.65
57.2,246.78,32.49
57.22,234.31,28.89
57.23,218.98,25.52
57.25,201.45,22.02
57.27,182.87,18.05
57.28,164.99,13.38
57.3,149.36,8.03
57.31,136.35,2.25
57.33,124.77,-3.42
57.34,112.01,-8.28
57.36,95.61,-11.75
57.38,74.9,-13.5
57.39,51.84,-13.6
57.41,30.15,-12.46
57.42,13.48,-10.73
57.44,2.94,-9.05
57.45,-4.01,-7.9
57.47,-12.25,-7.54
57.48,-25.86,-8.01
57.5,-44.41,-9.3
57.52,-61.62,-11.39
57.53,-67.96,-14.27
57.55,-55.94,-17.85
57.56,-25.14,-21.8
57.58,16.41,-25.5
57.59,55.91,-28.21
57.61,82.59,-29.29
57.63,93.32,-28.43
57.64,93.46,-25.79
57.66,92.59,-21.97
57.67,97.65,-17.73
57.69,108.44,-13.84
57.7,118.18,-10.88
57.72,118.32,-9.11
57.73,104.24,-8.52
57.75,78.58,-8.7
57.77,49.23,-8.9
57.78,24.58,-8.03
57.8,8.87,-5.02
57.81,0.46,0.9
57.83,-6.09,9.72
57.84,-16.2,20.51
57.86,-32.02,31.76
57.88,-51.47,41.83
57.89,-69.59,49.58
57.91,-81.56,54.67
57.92,-85.12,57.47
57.94,-81.71,58.59
57.95,-75.7,58.47
57.97,-72.16,57.14
57.98,-74.55,54.41
58.0,-83.14,50.22
58.02,-95.16,44.98
58.03,-106.26,39.51
58.05,-112.66,34.8
58.06,-112.92,31.57
58.08,-108.47,30.02
58.09,-102.91,29.89
58.11,-100.71,30.65
58.13,-105.74,31.79
58.14,-120.16,32.99
58.16,-143.53,34.05
58.17,-172.25,34.79
58.19,-199.37,35.13
58.2,-215.41,35.07
58.22,-210.64,34.87
58.23,-178.49,34.92
58.25,-118.77,35.59
58.27,-39.06,36.98
58.28,46.82,38.82
58.3,122.98,40.58
58.31,176.61,41.77
58.33,201.61,42.12
58.34,199.33,41.72
58.36,176.6,40.86
58.38,142.04,39.75
58.39,103.15,38.46
58.41,64.85,36.74
58.42,29.82,34.31
58.44,-0.44,30.88
58.45,-24.76,26.46
58.47,-42.34,21.29
58.48,-53.42,15.8
58.5,-59.55,10.41
58.52,-63.43,5.28
58.53,-68.14,0.25
58.55,-75.96,-5.21
58.56,-87.79,-11.72
58.58,-103.27,-19.76
58.59,-121.46,-29.45
58.61,-141.57,-40.34
58.63,-163.17,-51.51
58.64,-185.58,-61.74
58.66,-207.39,-69.76
58.67,-226.18,-74.53
58.69,-238.83,-75.55
58.7,-242.26,-73.01
58.72,-233.99,-67.88
58.73,-212.82,-61.61
58.75,-179.39,-55.76
58.77,-136.75,-51.51
58.78,-90.5,-49.37
58.8,-47.98,-49.13
58.81,-16.41,-50.08
58.83,-0.36,-51.46
58.84,-0.13,-52.76
58.86,-11.71,-53.91
58.88,-28.75,-55.18
58.89,-45.42,-57.11
58.91,-58.54,-60.16
58.92,-68.25,-64.55
58.94,-76.64,-70.09
58.95,-85.88,-76.27
58.97,-96.82,-82.45
58.98,-109.25,-88.23
59.0,-122.5,-93.77
59.02,-136.15,-99.82
59.03,-149.9,-107.56
59.05,-162.93,-118.08
59.06,-173.47,-131.8
59.08,-179.13,-148.04
59.09,-177.98,-165.06
59.11,-169.66,-180.52
59.13,-155.96,-192.13
59.14,-140.26,-198.41
59.16,-126.12,-198.97
59.17,-115.73,-194.44
59.19,-108.91,-186.07
59.2,-103.21,-175.32
59.22,-95.09,-163.58
59.23,-81.67,-151.98
59.25,-62.16,-141.55
59.27,-38.25,-133.13
59.28,-13.45,-127.33
59.3,8.15,-124.36
59.31,23.05,-123.93
59.33,29.14,-125.18
59.34,26.11,-126.96
59.36,15.41,-128.1
59.38,0.11,-127.76
59.39,-15.46,-125.6
59.41,-26.47,-121.79
59.42,-28.75,-116.8
59.44,-19.98,-111.11
59.45,-0.41,-104.99
59.47,27.28,-98.6
59.48,59.05,-92.04
59.5,90.69,-85.53
59.52,118.86,-79.27
59.53,141.28,-73.08
59.55,156.38,-66.25
59.56,163.2,-57.5
59.58,161.34,-45.48
59.59,151.17,-29.4
59.61,134.03,-9.51
59.63,112.07,12.9
59.64,87.75,36.03
59.66,63.35,58.23
59.67,40.44,78.41
59.69,19.68,96.0
59.7,0.87,110.55
59.72,-16.71,121.36
59.73,-33.83,127.54
59.75,-50.95,128.31
59.77,-67.85,123.56
59.78,-83.64,114.14
59.8,-96.9,101.64
59.81,-106.21,87.95
59.83,-110.84,74.54
59.84,-111.06,62.1
59.86,-108.31,50.46
59.88,-104.69,38.84
59.89,-102.18,26.34
59.91,-101.99,12.32
59.92,-104.03,-3.21
59.94,-106.97,-19.55
59.95,-108.66,-35.36
59.97,-107.12,-48.99
59.98,-101.36,-59.1
60.0,-91.93,-65.14
60.02,-80.71,-67.42
60.03,-70.33,-66.76
60.05,-63.26,-63.98
60.06,-61.11,-59.54
60.08,-64.27,-53.62
60.09,-72.0,-46.29
60.11,-82.84,-37.73
60.13,-95.14,-28.18
60.14,-107.41,-17.51
60.16,-118.58,-5.01
60.17,-127.98,10.37
60.19,-135.07,29.19
60.2,-139.32,50.86
60.22,-140.16,73.64
60.23,-137.22,95.57
60.25,-130.53,115.6
60.27,-120.8,134.16
60.28,-109.31,152.56
60.3,-97.67,171.65
60.31,-87.25,190.64
60.33,-78.58,206.78
60.34,-71.2,216.53
60.36,-64.0,217.15
60.38,-55.93,207.85
60.39,-46.76,190.1
60.41,-37.33,167.17
60.42,-29.27,143.5
60.44,-24.22,123.94
60.45,-23.04,113.1
60.47,-25.46,114.51
60.48,-30.45,129.41
60.5,-36.76,155.84
60.52,-43.44,188.64
60.53,-49.97,220.74
60.55,-56.03,245.14
60.56,-61.17,256.75
60.58,-64.66,253.26
60.59,-65.71,235.1
60.61,-64.01,204.61
60.63,-60.07,165.24
60.64,-55.25,120.87
60.66,-51.3,75.33
60.67,-49.75,32.09
60.69,-51.0,-6.23
60.7,-53.7,-38.08
60.72,-54.83,-62.96
60.73,-50.34,-80.92
60.75,-36.47,-92.28
60.77,-11.28,-97.39
60.78,24.29,-97.18
60.8,66.37,-93.6
60.81,109.13,-89.64
60.83,146.43,-88.58
60.84,173.61,-92.53
60.86,188.32,-101.2
60.88,190.72,-111.7
60.89,182.85,-119.41
60.91,167.87,-119.77
60.92,149.25,-110.11
60.94,130.24,-90.52
60.95,113.4,-63.77
60.97,100.16,-34.24
60.98,90.47,-6.5
61.0,82.68,15.91
61.02,73.85,31.14
61.03,60.18,39.09
61.05,37.74,41.15
61.06,3.68,39.55
61.08,-42.44,36.35
61.09,-97.37,32.46
61.11,-153.95,27.06
61.13,-202.21,17.71
61.14,-232.16,1.24
61.16,-237.15,-24.88
61.17,-216.54,-61.3
61.19,-176.16,-106.09
61.2,-126.22,-154.93
61.22,-77.74,-201.98
61.23,-39.08,-241.25
61.25,-13.98,-267.98
61.27,-1.65,-279.82
61.28,1.49,-277.2
61.3,-0.11,-263.03
61.31,-2.52,-241.62
61.33,-3.12,-217.47
61.34,-0.55,-194.04
61.36,5.35,-173.16
61.38,13.77,-155.13
61.39,23.11,-139.18
61.41,31.39,-123.96
61.42,36.72,-107.95
61.44,37.62,-89.43
61.45,33.59,-66.55
61.47,25.4,-37.91
61.48,15.33,-3.3
61.5,7.0,35.54
61.52,4.61,74.98
61.53,11.47,110.31
61.55,28.56,137.19
61.56,53.62,153.24
61.58,81.56,158.71
61.59,106.25,156.1
61.61,122.59,148.88
61.63,128.25,140.12
61.64,124.07,131.53
61.66,113.14,123.52
61.67,99.2,115.73
61.69,85.31,107.71
61.7,73.2,99.3
61.72,63.38,90.45
61.73,55.74,81.14
61.75,49.94,71.41
61.77,45.74,61.71
61.78,42.79,53.24
61.8,40.59,47.88
61.81,38.35,47.58
61.83,35.1,53.52
61.84,30.01,65.51
61.86,22.9,81.9
61.88,14.66,100.07
61.89,7.36,117.29
61.91,3.57,131.41
61.92,5.34,141.32
61.94,13.14,146.95
61.95,25.45,149.06
61.97,39.22,148.82
61.98,50.98,147.46
62.0,58.2,145.79
62.02,59.9,143.97
62.03,56.58,141.4
62.05,49.45,137.09
62.06,39.87,130.16
62.08,28.97,120.72
62.09,17.82,110.3
62.11,7.58,101.85
62.13,-0.51,99.07
62.14,-5.55,105.31
62.16,-7.43,122.25
62.17,-7.03,148.8
62.19,-6.0,180.68
62.2,-6.11,211.05
62.22,-8.62,232.23
62.23,-13.74,238.17
62.25,-20.45,226.7
62.27,-26.64,200.55
62.28,-29.9,166.59
62.3,-28.3,133.58
62.31,-21.36,109.04
62.33,-10.28,97.07
62.34,2.4,97.76
62.36,13.68,108.26
62.38,21.15,124.7
62.39,23.61,143.55
62.41,21.04,161.95
62.42,13.94,176.96
62.44,2.92,185.13
62.45,-11.48,183.0
62.47,-28.39,168.56
62.48,-46.21,142.87
62.5,-62.52,110.45
62.52,-74.64,78.15
62.53,-80.63,52.86
62.55,-80.3,39.31
62.56,-75.55,38.77
62.58,-69.87,49.47
62.59,-67.31,68.0
62.61,-71.46,90.92
62.63,-84.0,115.79
62.64,-103.96,141.24
62.66,-127.4,166.39
62.67,-148.06,190.27
62.69,-159.23,211.8
62.7,-156.15,230.51
62.72,-137.91,247.32
62.73,-107.98,264.61
62.75,-73.17,285.25
62.77,-41.04,310.47
62.78,-17.38,338.3
62.8,-4.47,363.13
62.81,-0.86,377.24
62.83,-2.16,373.67
62.84,-2.7,348.98
62.86,2.76,304.58
62.88,17.2,245.96
62.89,39.79,180.79
62.91,65.42,116.59
62.92,85.51,59.23
62.94,90.48,12.26
62.95,73.18,-23.12
62.97,31.44,-47.76
62.98,-31.66,-64.25
63.0,-109.74,-76.21
63.02,-195.88,-87.28
63.03,-284.17,-99.97
63.05,-369.32,-115.13
63.06,-445.19,-132.16
63.08,-503.96,-149.79
63.09,-537.49,-167.11
63.11,-540.49,-183.89
63.13,-513.6,-200.44
63.14,-464.12,-217.1
63.16,-403.8,-233.73
63.17,-344.28,-249.59
63.19,-293.09,-263.71
63.2,-252.07,-275.21
63.22,-218.82,-283.61
63.23,-189.52,-288.96
63.25,-161.83,-291.49
63.27,-135.86,-291.47
63.28,-113.39,-288.8
63.3,-96.36,-282.9
63.31,-85.47,-272.92
63.33,-79.9,-258.07
63.34,-77.89,-238.18
63.36,-77.7,-213.99
63.38,-78.24,-187.17
63.39,-79.47,-159.95
63.41,-81.92,-134.52
63.42,-86.02,-112.61
63.44,-91.55,-95.3
63.45,-97.46,-83.04
63.47,-102.13,-75.71
63.48,-103.86,-72.73
63.5,-101.38,-73.04
63.52,-94.28,-75.13
63.53,-83.02,-77.16
63.55,-68.67,-77.24
63.56,-52.47,-74.01
63.58,-35.53,-67.01
63.59,-18.61,-57.03
63.61,-2.19,-45.92
63.63,13.39,-36.12
63.64,27.91,-29.96
63.66,41.09,-29.03
63.67,52.74,-33.87
63.69,62.82,-43.96
63.7,71.55,-57.89
63.72,79.34,-73.73
63.73,86.76,-89.48
63.75,94.41,-103.53
63.77,102.76,-114.91
63.78,112.13,-123.44
63.8,122.57,-129.54
63.81,133.96,-133.85
63.83,145.96,-136.86
63.84,158.13,-138.64
63.86,169.9,-138.9
63.88,180.78,-137.3
63.89,190.5,-133.73
63.91,199.03,-128.48
63.92,206.62,-122.25
63.94,213.6,-115.89
63.95,220.41,-110.16
63.97,227.29,-105.57
63.98,234.5,-102.34
64.0,242.39,-100.51
64.02,251.37,-99.97
64.03,261.72,-100.55
64.05,273.06,-101.92
64.06,284.05,-103.62
64.08,292.48,-105.11
64.09,295.89,-105.88
64.11,292.44,-105.63
64.13,281.68,-104.32
64.14,264.63,-102.15
64.16,243.19,-99.39
64.17,219.39,-96.29
64.19,194.74,-93.0
64.2,170.54,-89.67
64.22,148.2,-86.58
64.23,129.68,-84.18
64.25,117.21,-82.83
64.27,112.43,-82.47
64.28,115.41,-82.24
64.3,124.13,-80.54
64.31,135.09,-75.52
64.33,144.39,-65.86
64.34,149.22,-51.39
64.36,148.49,-33.37
64.38,142.79,-14.08
64.39,133.63,3.89
64.41,122.63,18.44
64.42,110.91,28.5
64.44,99.08,34.15
64.45,87.63,36.26
64.47,77.01,35.95
64.48,67.78,33.93
64.5,60.37,30.06
64.52,54.83,23.26
64.53,50.58,11.78
64.55,46.59,-6.2
64.56,41.67,-31.83
64.58,35.14,-65.04
64.59,27.28,-104.25
64.61,19.48,-146.56
64.63,13.85,-188.24
64.64,12.44,-225.48
64.66,16.35,-255.15
64.67,25.19,-275.52
64.69,37.2,-286.52
64.7,49.9,-289.61
64.72,60.88,-287.07
64.73,68.58,-281.13
64.75,72.36,-273.15
64.77,72.39,-263.29
64.78,69.2,-250.89
64.8,63.49,-235.23
64.81,56.04,-216.18
64.83,47.87,-194.5
64.84,40.18,-171.51
64.86,34.17,-148.42
64.88,30.65,-125.89
64.89,29.76,-103.85
64.91,30.87,-81.88
64.92,32.73,-59.56
64.94,33.88,-36.71
64.95,33.25,-13.46
64.97,30.67,9.96
64.98,27.12,33.21
65.0,24.37,55.9
65.02,24.62,77.66
65.03,29.48,98.14
65.05,39.46,117.21
65.06,53.69,134.78
65.08,70.18,150.68
65.09,86.39,164.31
65.11,99.87,174.6
65.13,108.85,180.39
65.14,112.35,180.88
65.16,110.3,176.21
65.17,103.39,167.41
65.19,92.88,156.1
65.2,80.47,143.82
65.22,67.81,131.61
65.23,56.26,120.11
65.25,46.57,109.86
65.27,38.87,101.59
65.28,32.7,96.17
65.3,27.33,94.13
65.31,21.93,95.1
65.33,15.72,97.72
65.34,8.23,100.13
65.36,-0.46,100.78
65.38,-9.53,99.28
65.39,-17.37,96.61
65.41,-21.96,94.55
65.42,-21.62,94.7
65.44,-15.69,97.67
65.45,-4.98,102.85
65.47,8.36,108.88
65.48,21.63,114.41
65.5,32.31,118.69
65.52,38.8,121.57
65.53,40.54,123.08
65.55,37.82,123.0
65.56,31.4,120.74
65.58,22.32,115.69
65.59,11.81,107.85
65.61,1.26,98.07
65.63,-7.86,87.86
65.64,-14.3,78.68
65.66,-17.47,71.26
65.67,-17.71,65.38
65.69,-16.23,60.26
65.7,-14.64,55.36
65.72,-14.43,50.93
65.73,-16.33,48.11
65.75,-20.06,48.38
65.77,-24.25,52.66
65.78,-26.99,60.81
65.8,-26.44,71.5
65.81,-21.49,82.78
65.83,-12.18,92.71
65.84,0.29,100.1
65.86,13.95,104.64
65.88,26.6,106.8
65.89,36.31,107.42
65.91,41.81,107.4
65.92,42.49,107.44
65.94,38.46,107.9
65.95,30.52,108.79
65.97,19.98,109.86
65.98,8.56,110.69
66.0,-1.96,110.77
66.02,-10.17,109.8
66.03,-15.44,107.72
66.05,-18.08,104.82
66.06,-19.21,101.62
66.08,-20.39,98.54
66.09,-23.01,95.6
66.11,-27.93,91.98
66.13,-35.06,86.01
66.14,-43.44,75.62
66.16,-51.37,59.21
66.17,-56.87,36.62
66.19,-58.32,9.68
66.2,-54.85,-17.99
66.22,-46.8,-42.13
66.23,-35.55,-59.18
66.25,-23.28,-67.38
66.27,-12.4,-66.91
66.28,-5.01,-59.24
66.3,-2.3,-46.22
66.31,-4.32,-29.36
66.33,-10.15,-9.82
66.34,-18.13,11.23
66.36,-26.48,32.37
66.38,-33.71,52.12
66.39,-39.02,69.6
66.41,-42.31,84.92
66.42,-44.07,98.97
66.44,-45.09,112.42
66.45,-46.09,124.76
66.47,-47.67,134.12
66.48,-50.14,138.05
66.5,-53.41,134.9
66.52,-56.89,124.87
66.53,-59.38,109.96
66.55,-59.13,92.84
66.56,-54.15,75.41
66.58,-42.99,57.93
66.59,-25.31,39.33
66.61,-2.4,18.34
66.63,23.18,-5.19
66.64,48.12,-29.81
66.66,69.3,-52.89
66.67,84.63,-71.77
66.69,93.39,-84.77
66.7,96.15,-91.67
66.72,94.25,-93.49
66.73,89.32,-91.81
66.75,82.87,-88.17
66.77,76.09,-83.54
66.78,69.79,-78.32
66.8,64.42,-72.6
66.81,60.09,-66.58
66.83,56.56,-60.94
66.84,53.3,-56.79
66.86,49.58,-55.35
66.88,44.91,-57.27
66.89,39.17,-62.3
66.91,33.08,-69.13
66.92,28.09,-75.88
66.94,26.1,-80.88
66.95,28.77,-83.32
66.97,36.76,-83.57
66.98,49.29,-83.06
67.0,64.16,-83.73
67.02,78.43,-87.31
67.03,89.16,-94.64
67.05,94.3,-105.24
67.06,93.07,-117.23
67.08,85.9,-127.66
67.09,74.08,-133.16
67.11,59.25,-130.84
67.13,43.0,-118.91
67.14,26.55,-97.41
67.16,10.72,-68.33
67.17,-4.07,-35.48
67.19,-17.7,-3.93
67.2,-30.17,21.2
67.22,-41.62,36.43
67.23,-52.2,41.71
67.25,-62.06,41.06
67.27,-71.1,41.43
67.28,-78.84,49.78
67.3,-84.28,69.77
67.31,-86.07,99.8
67.33,-82.9,133.5
67.34,-74.18,162.54
67.36,-60.39,180.22
67.38,-43.11,183.9
67.39,-24.59,175.09
67.41,-7.13,157.66
67.42,7.54,135.48
67.44,18.53,111.13
67.45,25.81,85.93
67.47,29.88,61.05
67.48,31.56,38.24
67.5,31.76,19.65
67.52,31.38,6.83
67.53,31.11,-0.23
67.55,31.33,-3.18
67.56,32.02,-4.63
67.58,32.78,-6.93
67.59,32.97,-11.38
67.61,31.99,-17.89
67.63,29.41,-25.26
67.64,25.21,-31.98
67.66,19.92,-36.81
67.67,14.57,-39.24
67.69,10.56,-39.54
67.7,9.39,-38.55
67.72,12.12,-37.4
67.73,18.97,-37.01
67.75,29.18,-37.8
67.77,41.11,-39.54
67.78,52.68,-41.51
67.8,61.93,-42.78
67.81,67.49,-42.7
67.83,68.83,-41.18
67.84,66.19,-38.65
67.86,60.45,-35.89
67.88,52.8,-33.58
67.89,44.46,-32.02
67.91,36.32,-31.03
67.92,28.9,-30.2
67.94,22.36,-29.06
67.95,16.61,-27.4
67.97,11.52,-25.26
67.98,6.94,-22.95
68.0,2.73,-20.84
68.02,-1.3,-19.36
68.03,-5.23,-18.91
68.05,-8.89,-19.66
68.06,-11.57,-21.44
68.08,-12.21,-23.54
68.09,-9.74,-24.9
68.11,-3.63,-24.22
68.13,5.64,-20.59
68.14,16.53,-13.77
68.16,26.86,-4.38
68.17,34.52,6.23
68.19,38.16,16.52
68.2,37.49,25.13
68.22,33.14,31.26
68.23,26.27,34.69
68.25,18.2,35.65
68.27,10.01,34.59
68.28,2.46,31.99
68.3,-4.03,28.36
68.31,-9.29,24.12
68.33,-13.32,19.66
68.34,-16.28,15.24
68.36,-18.46,10.96
68.38,-20.3,6.8
68.39,-22.33,2.66
68.41,-24.96,-1.59
68.42,-28.23,-5.93
68.44,-31.49,-10.22
68.45,-33.54,-14.31
68.47,-32.83,-18.15
68.48,-28.18,-21.93
68.5,-19.27,-26.02
68.52,-6.97,-30.78
68.53,6.87,-36.28
68.55,19.96,-42.07
68.56,30.44,-47.19
68.58,37.27,-50.38
68.59,40.42,-50.59
68.61,40.68,-47.39
68.63,39.14,-41.18
68.64,36.88,-33.08
68.66,34.67,-24.57
68.67,32.82,-16.97
68.69,31.32,-11.08
68.7,29.96,-7.09
68.72,28.48,-4.71
68.73,26.65,-3.52
68.75,24.31,-3.24
68.77,21.33,-3.86
68.78,17.53,-5.6
68.8,12.86,-8.55
68.81,7.56,-12.34
68.83,2.32,-16.0
68.84,-1.8,-18.12
68.86,-3.65,-17.38
68.88,-2.55,-13.23
68.89,1.25,-6.28
68.91,6.48,1.83
68.92,11.15,8.99
68.94,13.31,13.54
68.95,11.68,14.85
68.97,6.01,13.54
68.98,-2.97,11.11
69.0,-14.0,9.3
69.02,-25.79,9.51
69.03,-37.43,12.48
69.05,-48.43,18.18
69.06,-58.54,25.87
69.08,-67.48,34.37
69.09,-74.76,42.24
69.11,-79.79,48.21
69.13,-82.1,51.46
69.14,-81.71,51.84
69.16,-79.18,49.76
69.17,-75.39,45.81
69.19,-71.09,40.41
69.2,-66.34,33.44
69.22,-60.43,24.33
69.23,-52.18,12.41
69.25,-40.6,-2.63
69.27,-25.54,-20.38
69.28,-7.99,-39.21
69.3,10.13,-56.11
69.31,26.62,-66.93
69.33,39.75,-67.48
69.34,48.65,-55.4
69.36,53.41,-31.91
69.38,54.75,-2.29
69.39,53.54,25.27
69.41,50.47,42.56
69.42,46.0,44.42
69.44,40.49,30.78
69.45,34.39,6.35
69.47,28.37,-21.46
69.48,23.12,-45.47
69.5,19.17,-60.96
69.52,16.64,-66.28
69.53,15.05,-62.2
69.55,13.58,-50.73
69.56,11.54,-34.24
69.58,8.72,-15.23
69.59,5.74,3.65
69.61,3.81,19.81
69.63,4.19,31.2
69.64,7.62,36.98
69.66,13.85,37.57
69.67,21.7,34.48
69.69,29.53,29.62
69.7,35.9,24.66
69.72,40.02,20.5
69.73,41.97,17.15
69.75,42.39,14.06
69.77,42.0,10.37
69.78,41.26,5.58
69.8,40.3,-0.04
69.81,39.02,-5.21
69.83,37.43,-8.09
69.84,35.73,-7.34
69.86,34.3,-3.29
69.88,33.47,1.58
69.89,33.25,3.39
69.91,33.19,-1.37
69.92,32.47,-13.85
69.94,30.36,-31.67
69.95,26.61,-49.49
69.97,21.74,-60.87
69.98,16.97,-60.8
70.0,13.79,-47.49
70.02,13.38,-22.98
70.03,16.04,7.68
70.05,21.09,37.89
70.06,27.06,61.22
70.08,32.32,72.9
70.09,35.56,70.83
70.11,36.15,56.11
70.13,34.07,32.75
70.14,29.68,6.68
70.16,23.31,-15.87
70.17,15.23,-29.96
70.19,5.68,-33.13
70.2,-4.92,-25.76
70.22,-15.83,-10.73
70.23,-26.05,7.34
70.25,-34.5,23.27
70.27,-40.48,32.41
70.28,-43.92,31.71
70.3,-45.44,20.49
70.31,-46.11,0.56
70.33,-46.9,-24.2
70.34,-48.19,-48.94
70.36,-49.51,-69.07
70.38,-49.66,-81.3
70.39,-47.26,-84.22
70.41,-41.44,-78.36
70.42,-32.34,-65.78
70.44,-21.18,-49.5
70.45,-9.85,-32.81
70.47,-0.24,-18.55
70.48,6.38,-8.58
70.5,9.63,-3.54
70.52,9.86,-2.95
70.53,7.76,-5.67
70.55,3.92,-10.47
70.56,-1.29,-16.44
70.58,-7.69,-23.06
70.59,-15.03,-30.09
70.61,-22.87,-37.2
70.63,-30.6,-43.81
70.64,-37.69,-49.07
70.66,-43.86,-52.04
70.67,-49.16,-52.02
70.69,-53.92,-48.7
70.7,-58.42,-42.23
70.72,-62.68,-32.93
70.73,-66.39,-21.06
70.75,-68.9,-6.62
70.77,-69.51,10.58
70.78,-67.72,30.75
70.8,-63.36,53.88
70.81,-56.6,79.57
70.83,-47.8,106.86
70.84,-37.36,134.15
70.86,-25.63,159.21
70.88,-13.05,179.28
70.89,-0.2,191.55
70.91,12.12,193.69
70.92,22.94,184.59
70.94,31.49,164.84
70.95,37.39,136.92
70.97,40.8,104.87
70.98,42.37,73.34
71.0,42.93,46.39
71.02,43.15,26.14
71.03,43.36,12.07
71.05,43.58,1.33
71.06,43.62,-10.01
71.08,43.35,-25.11
71.09,42.79,-44.78
71.11,42.17,-67.04
71.13,41.88,-87.98
71.14,42.26,-103.52
71.16,43.43,-111.27
71.17,45.12,-111.21
71.19,46.65,-105.34
71.2,47.15,-96.41
71.22,45.89,-86.85
71.23,42.53,-78.12
71.25,37.37,-71.04
71.27,31.22,-66.08
71.28,25.01,-63.63
71.3,19.61,-63.65
71.31,15.55,-65.32
71.33,13.08,-66.87
71.34,12.35,-66.14
71.36,13.62,-61.43
71.38,17.12,-52.32
71.39,23.0,-39.94
71.41,31.03,-26.48
71.42,40.51,-14.29
71.44,50.48,-4.93
71.45,59.98,1.23
71.47,68.42,4.73
71.48,75.68,6.46
71.5,82.19,6.95
71.52,88.62,6.21
71.53,95.47,3.84
71.55,102.8,-0.44
71.56,110.14,-6.48
71.58,116.59,-13.61
71.59,121.14,-20.85
71.61,123.06,-27.36
71.63,122.07,-32.69
71.64,118.44,-36.95
71.66,112.68,-40.72
71.67,105.28,-44.83
71.69,96.58,-50.19
71.7,86.82,-57.54
71.72,76.46,-67.21
71.73,66.34,-78.77
71.75,57.75,-90.85
71.77,52.07,-101.23
71.78,50.15,-107.27
71.8,52.02,-106.72
71.81,56.62,-98.37
71.83,62.19,-82.54
71.84,66.77,-60.96
71.86,68.92,-36.34
71.88,68.08,-11.64
71.89,64.68,10.48
71.91,59.83,28.1
71.92,54.81,40.12
71.94,50.52,46.37
71.95,47.23,47.64
71.97,44.44,45.52
71.98,41.05,42.1
72.0,35.77,39.31
72.02,27.54,38.1
72.03,15.89,37.99
72.05,1.01,37.2
72.06,-16.37,33.56
72.08,-35.46,25.63
72.09,-55.63,13.59
72.11,-76.54,-0.51
72.13,-97.88,-13.31
72.14,-118.96,-20.94
72.16,-138.58,-20.18
72.17,-155.12,-9.34
72.19,-167.13,10.98
72.2,-173.79,37.49
72.22,-175.16,64.56
72.23,-171.97,85.37
72.25,-165.11,93.97
72.27,-155.24,87.29
72.28,-142.59,66.42
72.3,-127.23,36.28
72.31,-109.21,3.76
72.33,-88.76,-24.76
72.34,-66.33,-45.3
72.36,-42.65,-56.86
72.38,-18.84,-60.5
72.39,3.46,-58.02
72.41,22.06,-50.96
72.42,34.69,-40.55
72.44,39.6,-28.16
72.45,36.37,-15.75
72.47,26.21,-5.64
72.48,11.53,0.19
72.5,-4.82,0.92
72.52,-20.54,-2.79
72.53,-34.58,-9.14
72.55,-47.14,-16.08
72.56,-59.11,-22.1
72.58,-71.45,-26.67
72.59,-84.56,-30.06
72.61,-98.19,-33.02
72.63,-111.75,-36.31
72.64,-124.68,-40.42
72.66,-136.76,-45.52
72.67,-147.96,-51.34
72.69,-158.17,-57.08
72.7,-166.81,-61.36
72.72,-173.03,-62.47
72.73,-176.05,-58.89
72.75,-175.73,-50.05
72.77,-172.93,-36.67
72.78,-169.27,-20.67
72.8,-166.56,-4.46
72.81,-166.1,9.99
72.83,-168.26,21.77
72.84,-172.46,31.13
72.86,-177.56,38.87
72.88,-182.26,45.61
72.89,-185.48,51.25
72.91,-186.64,55.12
72.92,-185.59,56.46
72.94,-182.54,55.01
72.95,-177.88,51.33
72.97,-172.08,46.5
72.98,-165.57,41.6
73.0,-158.78,37.19
73.02,-152.11,33.13
73.03,-145.95,28.8
73.05,-140.47,23.6
73.06,-135.4,17.36
73.08,-129.97,10.47
73.09,-123.04,3.61
73.11,-113.64,-2.64
73.13,-101.36,-8.15
73.14,-86.72,-13.14
73.16,-70.99,-17.85
73.17,-55.68,-22.0
73.19,-42.0,-24.58
73.2,-30.41,-23.97
73.22,-20.67,-18.71
73.23,-12.22,-8.24
73.25,-4.45,6.55
73.27,3.08,23.43
73.28,10.64,39.56
73.3,18.53,52.46
73.31,27.12,60.67
73.33,36.72,63.96
73.34,47.37,63.05
73.36,58.59,59.16
73.38,69.43,53.63
73.39,78.61,47.81
73.41,84.82,42.91
73.42,87.22,39.63
73.44,85.62,37.57
73.45,80.7,35.1
73.47,73.87,29.84
73.48,66.89,19.97
73.5,61.46,5.74
73.52,58.85,-9.69
73.53,59.48,-20.96
73.55,62.85,-22.3
73.56,67.79,-9.61
73.58,72.79,18.08
73.59,76.45,58.37
73.61,77.85,106.29
73.63,76.76,155.54
73.64,73.49,199.7
73.66,68.75,233.25
73.67,63.27,252.19
73.69,57.7,254.6
73.7,52.62,240.89
73.72,48.5,213.53
73.73,45.76,176.25
73.75,44.81,133.1
73.77,45.84,87.59
73.78,48.69,42.52
73.8,52.67,0.2
73.81,56.81,-37.3
73.83,60.01,-68.22
73.84,61.58,-91.61
73.86,61.39,-107.79
73.88,59.95,-118.44
73.89,58.2,-126.01
73.91,57.01,-132.82
73.92,56.8,-140.13
73.94,57.38,-147.81
73.95,58.06,-154.55
73.97,57.85,-158.58
73.98,55.91,-158.71
74.0,51.8,-155.09
74.02,45.66,-149.34
74.03,38.14,-143.82
74.05,30.24,-140.38
74.06,23.12,-139.24
74.08,17.92,-138.72
74.09,15.48,-135.96
74.11,16.1,-128.23
74.13,19.38,-114.04
74.14,24.09,-93.6
74.16,28.26,-68.44
74.17,29.62,-40.7
74.19,26.25,-12.55
74.2,17.26,13.94
74.22,3.31,36.75
74.23,-13.56,53.96
74.25,-30.44,64.14
74.27,-44.4,67.08
74.28,-53.37,64.2
74.3,-56.68,58.21
74.31,-54.93,52.13
74.33,-49.69,48.15
74.34,-42.69,46.6
74.36,-35.33,46.18
74.38,-28.52,44.77
74.39,-22.75,40.52
74.41,-18.34,32.58
74.42,-15.56,21.31
74.44,-14.71,8.19
74.45,-15.78,-4.43
74.47,-18.4,-13.77
74.48,-21.74,-17.33
74.5,-24.77,-13.83
74.52,-26.63,-3.93
74.53,-26.94,9.69
74.55,-25.78,23.09
74.56,-23.47,32.68
74.58,-20.12,36.72
74.59,-15.51,36.1
74.61,-9.09,33.63
74.63,-0.34,32.37
74.64,11.0,33.97
74.66,24.61,37.8
74.67,39.8,41.6
74.69,55.68,42.93
74.7,71.44,40.57
74.72,86.53,34.97
74.73,100.72,27.69
74.75,113.89,20.34
74.77,125.91,13.64
74.78,136.4,7.53
74.8,144.74,1.46
74.81,150.28,-4.81
74.83,152.68,-10.94
74.84,152.06,-16.33
74.86,149.22,-20.66
74.88,145.43,-24.34
74.89,141.96,-28.57
74.91,139.78,-34.52
74.92,139.49,-42.57
74.94,141.28,-51.73
74.95,145.01,-59.96
74.97,149.86,-65.0
74.98,153.98,-65.44
75.0,154.35,-61.26
75.02,147.38,-53.69
75.03,130.11,-44.41
75.05,101.67,-34.72
75.06,64.11,-25.09
75.08,22.06,-15.43
75.09,-18.72,-5.59
75.11,-53.26,4.13
75.13,-78.79,12.78
75.14,-95.08,19.24
75.16,-103.77,22.75
75.17,-107.22,23.37
75.19,-107.58,21.97
75.2,-106.36,19.76
75.22,-104.71,17.57
75.23,-103.67,15.44
75.25,-104.3,12.85
75.27,-107.46,9.15
75.28,-113.43,4.3
75.3,-121.6,-0.96
75.31,-130.69,-5.42
75.33,-139.19,-8.07
75.34,-145.98,-8.78
75.36,-150.75,-8.53
75.38,-153.95,-9.0
75.39,-156.42,-11.82
75.41,-158.82,-17.8
75.42,-161.07,-26.48
75.44,-162.21,-36.24
75.45,-160.71,-44.73
75.47,-155.04,-49.58
75.48,-144.25,-49.1
75.5,-128.32,-42.84
75.52,-108.24,-31.8
75.53,-85.82,-17.99
75.55,-63.35,-3.92
75.56,-43.01,8.34
75.58,-26.44,17.87
75.59,-14.41,25.29
75.61,-6.71,32.54
75.63,-2.38,42.26
75.64,-0.05,57.01
75.66,1.52,78.31
75.67,3.23,105.84
75.69,5.42,136.89
75.7,8.11,166.4
75.72,11.14,187.89
75.73,14.36,195.27
75.75,17.84,185.1
75.77,21.72,158.07
75.78,26.1,119.12
75.8,30.84,75.72
75.81,35.61,35.18
75.83,39.78,2.27
75.84,42.68,-21.79
75.86,43.7,-38.45
75.88,42.48,-50.0
75.89,38.81,-57.82
75.91,32.57,-61.87
75.92,23.68,-61.42
75.94,12.2,-56.25
75.95,-1.42,-47.6
75.97,-16.27,-37.78
75.98,-31.01,-29.13
76.0,-44.18,-22.79
76.02,-54.6,-18.38
76.03,-61.57,-14.32
76.05,-64.97,-8.95
76.06,-64.99,-1.5
76.08,-62.05,7.45
76.09,-56.62,16.2
76.11,-49.37,22.63
76.13,-41.15,25.01
76.14,-33.14,22.47
76.16,-26.52,15.36
76.17,-22.17,5.04
76.19,-20.44,-6.45
76.2,-20.81,-17.06
76.22,-22.15,-25.31
76.23,-23.04,-30.71
76.25,-22.26,-33.86
76.27,-19.21,-36.02
76.28,-14.18,-38.61
76.3,-8.12,-42.53
76.31,-2.15,-47.93
76.33,2.74,-54.28
76.34,6.1,-60.59
76.36,7.91,-65.72
76.38,8.3,-68.68
76.39,7.31,-68.72
76.41,4.9,-65.45
76.42,1.1,-58.88
76.44,-3.74,-49.51
76.45,-8.71,-38.24
76.47,-12.68,-26.26
76.48,-14.61,-14.77
76.5,-14.06,-4.66
76.52,-11.4,3.72
76.53,-7.73,10.67
76.55,-4.43,16.91
76.56,-2.57,23.19
76.58,-2.49,29.86
76.59,-3.54,36.61
76.61,-4.34,42.6
76.63,-3.19,46.76
76.64,1.2,48.22
76.66,9.15,46.66
76.67,19.88,42.32
76.69,31.75,35.89
76.7,42.78,28.26
76.72,51.27,20.33
76.73,56.24,12.86
76.75,57.47,6.22
76.77,55.39,0.22
76.78,50.74,-5.95
76.8,44.31,-13.43
76.81,36.91,-22.97
76.83,29.27,-34.24
76.84,21.97,-45.48
76.86,15.49,-53.98
76.88,10.11,-57.08
76.89,5.73,-53.25
76.91,2.03,-42.75
76.92,-1.47,-27.37
76.94,-5.22,-9.74
76.95,-9.37,7.69
76.97,-13.68,23.15
76.98,-17.48,35.62
77.0,-19.78,44.52
77.02,-19.47,49.3
77.03,-15.77,49.42
77.05,-8.61,44.64
77.06,1.22,35.42
77.08,12.19,23.2
77.09,22.48,10.0
77.11,30.57,-2.1
77.13,35.78,-11.69
77.14,38.33,-18.28
77.16,38.93,-22.26
77.17,38.27,-24.34
77.19,36.8,-25.27
77.2,34.68,-25.85
77.22,32.09,-27.11
77.23,29.62,-30.5
77.25,28.16,-37.49
77.27,28.52,-48.93
77.28,30.86,-64.45
77.3,34.25,-82.36
77.31,36.92,-100.13
77.33,37.04,-115.24
77.34,33.68,-125.78
77.36,27.26,-130.62
77.38,19.59,-129.23
77.39,12.89,-121.4
77.41,8.75,-107.28
77.42,7.5,-87.65
77.44,8.19,-64.14
77.45,9.22,-39.0
77.47,9.26,-14.69
77.48,7.72,6.73
77.5,4.78,23.88
77.52,0.95,36.04
77.53,-3.42,42.99
77.55,-8.38,44.92
77.56,-14.22,42.57
77.58,-21.08,37.11
77.59,-28.73,29.88
77.61,-36.54,21.84
77.63,-43.73,13.16
77.64,-49.61,3.35
77.66,-53.79,-8.28
77.67,-56.27,-21.91
77.69,-57.35,-36.78
77.7,-57.53,-51.31
77.72,-57.37,-63.6
77.73,-57.37,-71.98
77.75,-57.74,-75.23
77.77,-58.28,-72.53
77.78,-58.21,-63.21
77.8,-56.3,-46.87
77.81,-51.22,-23.69
77.83,-42.02,5.11
77.84,-28.71,37.01
77.86,-12.45,68.56
77.88,4.63,96.21
77.89,20.07,117.38
77.91,31.87,131.11
77.92,39.08,138.15
77.94,41.92,140.35
77.95,41.46,139.9
77.97,39.0,138.59
77.98,35.54,137.48
78.0,31.6,136.93
78.02,27.32,136.67
78.03,22.85,136.08
78.05,18.5,134.37
78.06,14.73,130.76
78.08,11.98,124.92
78.09,10.45,117.09
78.11,10.08,108.21
78.13,10.6,99.54
78.14,11.85,92.16
78.16,13.9,86.55
78.17,17.08,82.43
78.19,21.9,79.16
78.2,28.76,76.34
78.22,37.77,74.25
78.23,48.58,73.81
78.25,60.48,75.96
78.27,72.54,81.01
78.28,83.74,88.3
78.3,93.23,96.44
78.31,100.49,103.81
78.33,105.49,108.98
78.34,108.76,110.78
78.36,111.25,108.05
78.38,113.99,99.64
78.39,117.73,84.75
78.41,122.49,63.64
78.42,127.51,38.08
78.44,131.45,11.11
78.45,132.7,-13.89
78.47,129.85,-34.49
78.48,122.04,-49.84
78.5,109.32,-60.51
78.52,92.7,-67.5
78.53,74.28,-71.25
78.55,56.84,-71.52
78.56,43.27,-68.02
78.58,35.73,-61.48
78.59,34.87,-54.14
78.61,39.55,-49.38
78.63,47.03,-50.54
78.64,53.9,-59.55
78.66,57.16,-76.04
78.67,54.97,-97.38
78.69,47.04,-119.41
78.7,34.25,-137.64
78.72,18.02,-148.42
78.73,-0.23,-149.77
78.75,-19.38,-141.64
78.77,-38.62,-125.73
78.78,-57.35,-104.88
78.8,-75.15,-82.25
78.81,-91.93,-60.59
78.83,-107.88,-41.71
78.84,-123.42,-26.46
78.86,-138.91,-14.89
78.88,-154.35,-6.74
78.89,-169.14,-1.62
78.91,-182.25,0.79
78.92,-192.52,0.86
78.94,-199.04,-0.85
78.95,-201.38,-3.58
78.97,-199.69,-6.38
78.98,-194.57,-8.34
79.0,-186.89,-8.92
79.02,-177.64,-8.21
79.03,-167.7,-6.85
79.05,-157.58,-5.83
79.06,-147.34,-6.06
79.08,-136.56,-8.08
79.09,-124.66,-11.95
79.11,-111.34,-17.46
79.13,-96.77,-24.24
79.14,-81.75,-31.95
79.16,-67.32,-40.04
79.17,-54.43,-47.6
79.19,-43.53,-53.26
79.2,-34.54,-55.47
79.22,-26.93,-53.03
79.23,-20.16,-45.71
79.25,-13.77,-34.46
79.27,-7.53,-21.2
79.28,-1.31,-8.19
79.3,5.05,2.7
79.31,11.77,10.49
79.33,19.15,15.17
79.34,27.44,17.34
79.36,36.71,17.78
79.38,46.81,17.1
79.39,57.37,15.65
79.41,67.74,13.62
79.42,77.17,11.17
79.44,84.94,8.56
79.45,90.59,6.06
79.47,94.1,3.95
79.48,95.98,2.42
79.5,97.19,1.61
79.52,98.86,1.59
79.53,101.89,2.31
79.55,106.69,3.48
79.56,112.99,4.4
79.58,120.08,4.14
79.59,127.1,1.68
79.61,133.44,-3.53
79.63,138.97,-11.16
79.64,144.12,-19.79
79.66,149.69,-27.21
79.67,156.72,-31.0
79.69,166.22,-29.42
79.7,178.96,-22.06
79.72,195.23,-10.11
79.73,214.43,3.97
79.75,234.92,17.31
79.77,254.09,27.65
79.78,268.9,34.15
79.8,276.81,37.65
79.81,276.83,40.21
79.83,270.0,43.97
79.84,259.19,49.88
79.86,248.01,56.9
79.88,239.33,62.1
79.89,234.11,61.72
79.91,231.08,52.97
79.92,227.53,35.8
79.94,220.55,13.73
79.95,208.44,-6.5
79.97,191.14,-16.5
79.98,169.99,-8.36
80.0,146.78,22.91
80.02,123.0,77.27
80.03,99.64,148.73
80.05,77.55,225.97
80.06,58.07,294.8
80.08,43.2,342.0
80.09,34.91,358.91
80.11,33.89,343.57
80.13,38.61,300.56
80.14,45.29,238.93
80.16,48.98,169.34
80.17,45.53,101.51
80.19,33.09,42.69
80.2,12.59,-3.05
80.22,-12.96,-35.26
80.23,-39.91,-57.36
80.25,-65.4,-75.97
80.27,-87.94,-98.77
80.28,-107.24,-131.24
80.3,-123.63,-173.38
80.31,-137.36,-218.67
80.33,-148.55,-255.98
80.34,-157.32,-274.07
80.36,-164.08,-266.01
80.38,-169.69,-231.18
80.39,-175.35,-174.7
80.41,-182.25,-104.66
80.42,-190.99,-29.62
80.44,-201.29,42.64
80.45,-211.78,105.02
80.47,-220.46,150.92
80.48,-225.36,175.01
80.5,-225.36,174.79
80.52,-220.63,151.82
80.53,-212.55,111.55
80.55,-203.04,61.45
80.56,-193.77,8.36
80.58,-185.66,-43.05
80.59,-178.75,-90.22
80.61,-172.59,-131.29
80.63,-166.65,-163.89
80.64,-160.64,-185.1
80.66,-154.6,-192.66
80.67,-148.65,-186.51
80.69,-142.83,-169.43
80.7,-136.89,-146.22
80.72,-130.52,-121.9
80.73,-123.39,-100.02
80.75,-115.49,-82.08
80.77,-107.18,-67.89
80.78,-99.16,-56.61
80.8,-92.13,-47.65
80.81,-86.35,-40.97
80.83,-81.45,-36.74
80.84,-76.4,-34.91
80.86,-69.95,-34.99
80.88,-61.18,-36.1
80.89,-50.0,-37.32
80.91,-37.34,-38.02
80.92,-24.75,-38.03
80.94,-13.95,-37.62
80.95,-6.12,-37.37
80.97,-1.67,-37.88
80.98,-0.22,-39.62
81.0,-0.93,-42.78
81.02,-2.96,-47.19
81.03,-5.8,-52.38
81.05,-9.24,-57.58
81.06,-13.19,-61.86
81.08,-17.41,-64.29
81.09,-21.44,-64.08
81.11,-24.77,-60.81
81.13,-27.08,-54.63
81.14,-28.59,-46.31
81.16,-29.97,-37.03
81.17,-32.02,-27.95
81.19,-35.18,-19.56
81.2,-39.08,-11.37
81.22,-42.49,-2.11
81.23,-43.77,9.51
81.25,-41.57,23.67
81.27,-35.35,38.74
81.28,-25.78,51.44
81.3,-14.53,57.95
81.31,-3.58,55.49
81.33,5.21,43.48
81.34,10.72,23.91
81.36,12.7,0.59
81.38,11.6,-22.17
81.39,8.18,-40.87
81.41,3.26,-53.69
81.42,-2.54,-60.71
81.44,-8.69,-63.65
81.45,-14.61,-65.24
81.47,-19.76,-68.45
81.48,-23.63,-75.5
81.5,-25.98,-87.04
81.52,-27.05,-101.75
81.53,-27.64,-116.65
81.55,-28.8,-128.02
81.56,-31.44,-132.59
81.58,-35.69,-128.51
81.59,-40.7,-115.73
81.61,-44.85,-95.88
81.63,-46.29,-71.69
81.64,-43.76,-46.31
81.66,-37.41,-22.84
81.67,-28.61,-3.79
81.69,-19.49,9.36
81.7,-12.09,16.33
81.72,-7.8,18.09
81.73,-6.98,16.52
81.75,-9.18,13.85
81.77,-13.43,12.05
81.78,-18.84,12.43
81.8,-25.0,15.54
81.81,-31.64,21.35
81.83,-38.5,29.49
81.84,-45.07,39.37
81.86,-50.84,50.31
81.88,-55.34,61.56
81.89,-58.47,72.45
81.91,-60.63,82.48
81.92,-62.74,91.21
81.94,-66.43,98.25
81.95,-72.78,102.92
81.97,-81.73,104.39
81.98,-91.93,101.87
82.0,-101.07,95.17
82.02,-106.72,85.24
82.03,-107.28,74.32
82.05,-102.57,65.47
82.06,-94.05,61.54
82.08,-85.34,64.17
82.09,-79.52,73.08
82.11,-78.04,86.24
82.13,-80.68,100.59
82.14,-86.49,113.14
82.16,-94.52,121.84
82.17,-104.16,125.91
82.19,-115.08,125.79
82.2,-126.97,122.71
82.22,-141.47,118.13
82.23,-158.75,113.3
82.25,-177.23,108.87
82.27,-194.88,104.82
82.28,-211.01,100.59
82.3,-226.7,95.42
82.31,-243.58,88.78
82.33,-262.36,80.6
82.34,-281.92,71.31
82.36,-302.58,61.56
82.38,-321.41,51.85
82.39,-332.81,42.34
82.41,-331.28,33.03
82.42,-314.67,23.96
82.44,-285.07,15.49
82.45,-246.99,8.11
82.47,-205.15,2.15
82.48,-163.05,-2.49
82.5,-126.6,-6.29
82.52,-97.52,-9.79
82.53,-73.2,-13.12
82.55,-49.3,-15.91
82.56,-23.17,-17.42
82.58,5.07,-17.0
82.59,34.05,-14.46
82.61,62.66,-10.07
82.63,118.07,-4.33
82.64,206.13,2.31
82.66,310.88,9.59
82.67,406.34,17.24
82.69,475.53,24.73
82.7,515.78,30.99
82.72,532.69,34.48
82.73,534.23,33.59
82.75,527.59,27.13
82.77,517.35,14.83
82.78,501.51,-2.42
82.8,478.87,-22.73
82.81,451.01,-43.75
82.83,421.24,-63.41
82.84,392.35,-80.53
82.86,365.67,-95.12
82.88,341.63,-108.0
82.89,320.46,-120.11
82.91,301.38,-131.74
82.92,280.23,-142.15
82.94,254.99,-149.81
82.95,227.06,-152.99
82.97,200.11,-150.5
82.98,177.39,-142.15
83.0,159.97,-128.75
83.02,146.4,-111.79
83.03,138.63,-93.07
83.05,135.03,-74.39
83.06,130.99,-57.28
83.08,123.39,-42.88
83.09,111.82,-31.68
83.11,98.07,-23.54
83.13,84.37,-17.74
83.14,72.25,-13.37
83.16,62.46,-9.63
83.17,55.18,-6.12
83.19,49.27,-2.82
83.2,42.47,0.08
83.22,33.16,2.48
83.23,20.86,4.56
83.25,6.14,6.67
83.27,-10.13,9.03
83.28,-27.16,11.34
83.3,-44.47,12.73
83.31,-61.88,11.99
83.33,-80.17,8.18
83.34,-100.51,1.13
83.36,-123.6,-8.34
83.38,-149.13,-18.71
83.39,-175.64,-28.34
83.41,-200.99,-35.97
83.42,-222.85,-40.98
83.44,-239.38,-43.17
83.45,-249.74,-42.38
83.47,-254.79,-38.31
83.48,-256.48,-30.62
83.5,-257.62,-19.37
83.52,-261.39,-5.34
83.53,-270.57,9.86
83.55,-286.48,24.29
83.56,-308.1,36.24
83.58,-331.41,44.67
83.59,-349.9,49.38
83.61,-356.25,50.73
83.63,-344.68,49.23
83.64,-313.33,45.28
83.66,-265.47,39.06
83.67,-208.95,30.68
83.69,-153.71,20.36
83.7,-108.56,8.69
83.72,-78.34,-3.37
83.73,-62.94,-14.73
83.75,-58.0,-24.49
83.77,-57.34,-32.24
83.78,-55.35,-38.23
83.8,-48.66,-43.27
83.81,-36.6,-48.36
83.83,-20.48,-54.13
83.84,-2.45,-60.41
83.86,15.35,-66.04
83.88,31.13,-69.17
83.89,43.49,-67.95
83.91,51.07,-61.26
83.92,53.14,-49.28
83.94,50.0,-33.56
83.95,43.43,-16.6
83.97,36.43,-1.02
83.98,32.3,11.25
84.0,33.54,19.54
84.02,40.8,24.45
84.03,52.71,27.33
84.05,66.17,29.71
84.06,77.98,32.66
84.08,85.79,36.57
84.09,88.91,41.24
84.11,88.29,46.11
84.13,85.84,50.44
84.14,83.46,53.41
84.16,82.24,54.19
84.17,82.45,52.01
84.19,82.75,46.27
84.2,81.99,36.81
84.22,79.48,24.07
84.23,75.17,9.06
84.25,69.65,-6.84
84.27,63.76,-22.2
84.28,58.15,-35.74
84.3,53.33,-46.37
84.31,50.48,-53.11
84.33,49.41,-54.95
84.34,51.0,-51.02
84.36,56.03,-40.92
84.38,64.88,-25.0
84.39,77.17,-4.71
84.41,91.66,17.63
84.42,106.56,39.4
84.44,120.01,58.26
84.45,131.88,72.74
84.47,140.55,82.37
84.48,146.4,87.39
84.5,150.0,88.27
84.52,151.54,85.37
84.53,150.41,78.84
84.55,145.5,68.89
84.56,135.89,56.13
84.58,121.58,41.68
84.59,105.02,27.09
84.61,86.06,13.84
84.63,65.89,2.88
84.64,45.06,-5.66
84.66,23.95,-12.44
84.67,3.84,-18.49
84.69,-12.21,-24.93
84.7,-19.63,-32.49
84.72,-23.18,-41.44
84.73,-8.33,-51.34
84.75,21.61,-61.09
84.77,61.66,-68.95
84.78,104.66,-72.87
84.8,143.46,-71.15
84.81,172.99,-63.05
84.83,191.31,-49.17
84.84,199.46,-31.44
84.86,200.39,-12.5
84.88,199.13,5.19
84.89,197.2,20.0
84.91,196.87,31.35
84.92,199.21,39.43
84.94,204.24,44.64
84.95,211.02,47.25
84.97,217.88,47.28
84.98,222.36,44.8
85.0,221.58,40.2
85.02,213.92,34.31
85.03,196.33,28.17
85.05,168.95,22.66
85.06,134.1,18.29
85.08,95.78,15.02
85.09,58.4,12.47
85.11,25.49,10.19
85.13,-1.38,7.83
85.14,-22.58,5.23
85.16,-39.16,2.34
85.17,-54.03,-0.75
85.19,-68.9,-3.81
85.2,-84.86,-6.31
85.22,-102.68,-7.26
85.23,-123.06,-5.41
85.25,-146.68,0.48
85.27,-173.91,11.08
85.28,-204.29,26.01
85.3,-235.96,43.73
85.31,-266.81,61.86
85.33,-293.76,77.89
85.34,-313.85,89.96
85.36,-324.92,97.39
85.38,-326.02,100.57
85.39,-317.64,100.5
85.41,-301.54,98.02
85.42,-280.31,93.53
85.44,-256.65,87.02
85.45,-233.06,78.49
85.47,-210.88,68.3
85.48,-190.41,57.21
85.5,-171.21,46.02
85.52,-152.63,35.23
85.53,-134.37,24.81
85.55,-116.5,14.57
85.56,-99.18,4.65
85.58,-82.36,-3.99
85.59,-65.74,-9.74
85.61,-48.99,-10.92
85.63,-32.13,-6.63
85.64,-16.05,2.9
85.66,-2.44,16.54
85.67,6.82,33.04
85.69,10.82,51.59
85.7,10.25,72.04
85.72,7.12,94.43
85.73,4.04,118.29
85.75,3.31,142.19
85.77,6.16,163.82
85.78,12.2,180.44
85.8,19.62,189.57
85.81,26.13,189.59
85.83,30.57,180.17
85.84,33.49,162.59
85.86,36.78,139.58
85.88,42.86,114.84
85.89,53.66,92.01
85.91,69.72,73.46
85.92,89.41,59.47
85.94,109.03,48.23
85.95,124.08,36.81
85.97,131.76,22.66
85.98,131.84,4.65
86.0,126.18,-16.62
86.02,117.63,-39.49
86.03,108.89,-62.06
86.05,101.65,-82.9
86.06,95.76,-101.1
86.08,89.3,-116.09
86.09,79.23,-127.45
86.11,63.59,-135.01
86.13,41.62,-138.93
86.14,12.93,-139.69
86.16,-22.66,-137.83
86.17,-64.41,-133.62
86.19,-106.91,-127.04
86.2,-139.25,-117.93
86.22,-150.2,-106.44
86.23,-136.16,-93.17
86.25,-101.38,-79.21
86.27,-53.87,-65.78
86.28,-1.87,-53.98
86.3,47.72,-44.71
86.31,89.96,-38.56
86.33,121.79,-35.79
86.34,141.58,-36.2
86.36,151.7,-38.87
86.38,151.95,-42.37
86.39,144.14,-45.14
86.41,132.39,-46.22
86.42,121.01,-45.68
86.44,113.14,-44.87
86.45,110.27,-45.98
86.47,112.59,-51.46
86.48,119.05,-63.12
86.5,127.63,-81.36
86.52,135.37,-104.61
86.53,138.11,-129.4
86.55,133.63,-151.0
86.56,120.61,-164.84
86.58,99.74,-168.01
86.59,74.82,-160.26
86.61,52.56,-144.01
86.63,40.14,-123.1
86.64,41.66,-101.22
86.66,55.28,-80.46
86.67,74.3,-61.11
86.69,89.79,-42.4
86.7,93.94,-23.67
86.72,83.42,-5.12
86.73,60.43,12.34
86.75,30.72,27.93
86.77,0.0,41.93
86.78,-29.01,55.92
86.8,-57.44,72.24
86.81,-87.95,92.85
86.83,-122.33,118.31
86.84,-160.51,147.31
86.86,-200.68,177.01
86.88,-240.56,203.93
86.89,-278.73,224.99
86.91,-315.05,238.45
86.92,-349.75,243.93
86.94,-382.04,242.16
86.95,-408.94,234.35
86.97,-425.61,221.63
86.98,-427.21,205.58
87.0,-410.67,189.01
87.02,-375.87,176.5
87.03,-326.03,173.6
87.05,-267.13,184.87
87.06,-206.46,211.52
87.08,-151.11,250.33
87.09,-106.61,294.34
87.11,-75.98,335.38
87.13,-59.28,366.8
87.14,-53.64,385.28
87.16,-53.53,390.77
87.17,-53.06,385.03
87.19,-47.89,370.13
87.2,-36.2,347.55
87.22,-18.38,318.6
87.23,3.86,285.12
87.25,28.41,249.79
87.27,53.25,215.62
87.28,76.51,185.05
87.3,97.51,159.14
87.31,115.05,137.46
87.33,127.11,118.65
87.34,131.88,101.12
87.36,129.17,83.61
87.38,120.94,65.42
87.39,110.43,46.5
87.41,100.93,27.33
87.42,94.59,8.39
87.44,94.02,-10.14
87.45,100.12,-28.46
87.47,112.16,-47.27
87.48,128.91,-67.44
87.5,149.83,-89.67
87.52,174.59,-114.28
87.53,201.74,-141.31
87.55,228.11,-170.54
87.56,249.5,-201.51
87.58,265.1,-233.23
87.59,275.46,-263.87
87.61,281.83,-290.76
87.63,285.57,-310.9
87.64,288.03,-321.96
87.66,289.71,-323.17
87.67,289.79,-315.67
87.69,286.75,-302.17
87.7,263.75,-285.85
87.72,215.43,-269.27
87.73,150.5,-253.84
87.75,85.22,-239.88
87.77,30.88,-227.23
87.78,-9.91,-215.7
87.8,-39.26,-205.29
87.81,-59.62,-195.94
87.83,-72.27,-187.38
87.84,-78.29,-179.17
87.86,-77.43,-170.92
87.88,-72.63,-162.75
87.89,-70.18,-155.17
87.91,-76.86,-148.87
87.92,-96.0,-144.2
87.94,-125.67,-140.86
87.95,-161.16,-137.93
87.97,-195.54,-134.46
87.98,-222.73,-130.01
88.0,-237.04,-125.02
88.02,-236.55,-120.69
88.03,-223.37,-118.42
88.05,-201.87,-119.18
88.06,-176.47,-123.05
88.08,-150.69,-129.25
88.09,-126.97,-136.35
88.11,-106.79,-142.67
88.13,-90.86,-146.53
88.14,-77.82,-146.6
88.16,-65.94,-142.39
88.17,-53.98,-134.64
88.19,-41.33,-125.57
88.2,-26.82,-118.29
88.22,-10.68,-115.5
88.23,6.16,-117.84
88.25,22.49,-123.01
88.27,37.06,-126.32
88.28,49.39,-122.63
88.3,59.12,-108.92
88.31,65.68,-85.82
88.33,68.49,-57.5
88.34,66.81,-29.87
88.36,60.01,-7.95
88.38,48.17,5.99
88.39,32.5,12.8
88.41,15.05,15.29
88.42,-1.54,16.48
88.44,-14.89,18.05
88.45,-23.59,20.16
88.47,-27.34,21.95
88.48,-27.64,22.52
88.5,-27.37,21.69
88.52,-29.1,20.04
88.53,-33.77,18.44
88.55,-40.13,17.44
88.56,-45.19,16.93
88.58,-45.35,16.21
88.59,-37.76,14.4
88.61,-21.23,11.04
88.63,2.04,6.39
88.64,27.05,1.31
88.66,48.54,-3.17
88.67,63.4,-6.41
88.69,71.84,-8.47
88.7,76.59,-9.88
88.72,81.38,-11.24
88.73,89.33,-12.66
88.75,102.06,-13.51
88.77,117.69,-12.66
88.78,131.19,-9.0
88.8,136.89,-2.05
88.81,130.54,7.59
88.83,110.66,18.38
88.84,78.34,28.28
88.86,37.17,35.38
88.88,-10.44,38.46
88.89,-53.72,37.29
88.91,-78.04,32.56
88.92,-74.4,25.62
88.94,-45.5,18.04
88.95,-3.23,11.11
88.97,38.33,5.48
88.98,68.04,0.94
89.0,81.07,-3.38
89.02,80.03,-8.64
89.03,73.0,-15.74
89.05,68.05,-24.96
89.06,69.3,-35.91
89.08,77.01,-47.71
89.09,86.62,-59.25
89.11,94.17,-69.44
89.13,97.93,-77.29
89.14,99.2,-82.06
89.16,102.08,-83.31
89.17,111.18,-81.17
89.19,127.99,-76.25
89.2,149.76,-69.46
89.22,171.31,-61.55
89.23,187.73,-52.76
89.25,196.77,-42.77
89.27,199.13,-31.07
89.28,194.73,-17.43
89.3,185.64,-2.22
89.31,174.65,13.53
89.33,163.83,28.64
89.34,154.1,42.15
89.36,145.53,53.68
89.38,137.69,63.38
89.39,130.0,71.59
89.41,121.44,78.61
89.42,110.98,84.56
89.44,98.66,89.43
89.45,85.37,93.26
89.47,71.81,96.1
89.48,57.66,98.0
89.5,41.33,98.91
89.52,20.57,98.67
89.53,-6.32,97.09
89.55,-39.67,94.1
89.56,-78.08,89.74
89.58,-118.67,84.11
89.59,-158.59,77.09
89.61,-196.28,68.23
89.63,-231.66,56.92
89.64,-265.34,42.59
89.66,-297.57,25.26
89.67,-327.41,5.57
89.69,-352.79,-15.58
89.7,-371.37,-37.68
89.72,-381.18,-61.11
89.73,-381.52,-86.89
89.75,-373.06,-115.86
89.77,-357.48,-147.58
89.78,-336.81,-179.82
89.8,-313.13,-208.91
89.81,-288.19,-231.0
89.83,-263.49,-243.43
89.84,-240.09,-245.63
89.86,-218.62,-238.88
89.88,-199.38,-225.36
89.89,-182.43,-207.11
89.91,-167.56,-185.37
89.92,-154.35,-160.79
89.94,-142.08,-134.0
89.95,-129.82,-106.07
89.97,-116.71,-78.59
89.98,-102.37,-53.22
90.0,-87.24,-31.18
90.02,-72.69,-12.92
90.03,-60.66,1.89
90.05,-52.84,14.05
90.06,-49.75,24.44
90.08,-50.17,33.8
90.09,-51.09,42.38
90.11,-48.68,50.09
90.13,-39.56,56.63
90.14,-22.22,61.73
90.16,2.38,65.27
90.17,31.07,67.21
90.19,59.49,67.53
90.2,83.47,66.08
90.22,100.04,62.76
90.23,108.11,57.77
90.25,108.35,51.93
90.27,102.47,46.74
90.28,92.57,44.09
90.3,80.68,45.56
90.31,68.59,51.83
90.33,57.7,62.28
90.34,48.88,75.13
90.36,42.13,88.07
90.38,37.04,99.02
90.39,32.84,106.76
90.41,28.7,111.18
90.42,23.76,113.06
90.44,17.41,113.55
90.45,9.69,113.54
90.47,1.42,113.36
90.48,-5.81,112.72
90.5,-10.43,111.0
90.52,-10.92,107.81
90.53,-6.5,103.3
90.55,2.24,98.31
90.56,13.17,94.07
90.58,23.38,91.68
90.59,30.39,91.62
90.61,33.0,93.47
90.63,31.51,96.08
90.64,26.86,97.9
90.66,20.56,97.66
90.67,14.43,94.79
90.69,10.1,89.79
90.7,8.56,84.28
90.72,10.01,80.66
90.73,13.79,81.44
90.75,18.4,88.33
90.77,25.47,101.43
90.78,33.77,118.79
90.8,40.31,136.85
90.81,43.44,151.3
90.83,44.67,158.5
90.84,47.09,156.73
90.86,53.33,146.94
90.88,64.27,132.58
90.89,78.89,118.34
90.91,95.09,108.36
90.92,110.8,104.57
90.94,123.87,105.9
90.95,132.98,108.68
90.97,137.74,107.95
90.98,138.7,99.23
91.0,137.24,79.85
91.02,135.38,49.53
91.03,135.25,10.09
91.05,136.07,-35.38
91.06,137.36,-83.53
91.08,138.24,-131.56
91.09,138.22,-177.64
91.11,137.35,-221.04
91.13,136.13,-261.5
91.14,135.32,-298.48
91.16,135.56,-330.16
91.17,136.99,-353.18
91.19,139.33,-363.39
91.2,142.12,-357.55
91.22,144.88,-335.1
91.23,147.78,-298.91
91.25,151.47,-254.62
91.27,156.32,-208.61
91.28,161.91,-165.83
91.3,166.65,-128.57
91.31,167.78,-96.76
91.33,162.21,-69.31
91.34,147.46,-45.58
91.36,122.44,-26.05
91.38,88.13,-11.75
91.39,47.38,-3.23
91.41,3.9,0.31
91.42,-38.81,0.92
91.44,-78.3,0.98
91.45,-113.47,2.24
91.47,-144.37,5.05
91.48,-171.52,8.58
91.5,-195.62,11.48
91.52,-217.33,12.76
91.53,-237.39,12.22
91.55,-256.6,10.42
91.56,-275.35,8.16
91.58,-292.71,5.9
91.59,-306.0,3.54
91.61,-311.22,0.42
91.63,-304.58,-4.12
91.64,-284.66,-10.17
91.66,-253.89,-16.9
91.67,-218.05,-22.56
91.69,-184.0,-25.02
91.7,-156.43,-22.5
91.72,-135.53,-14.35
91.73,-117.12,-1.31
91.75,-95.27,14.68
91.77,-66.0,31.11
91.78,-30.24,45.75
91.8,6.2,57.21
91.81,35.28,65.08
91.83,50.85,69.7
91.84,51.94,71.68
91.86,43.45,71.56
91.88,33.97,69.63
91.89,32.06,66.08
91.91,42.85,61.14
91.92,66.12,55.19
91.94,96.49,48.79
91.95,125.3,42.46
91.97,143.23,36.6
91.98,143.08,31.31
92.0,122.26,26.44
92.02,84.06,21.68
92.03,37.44,16.7
92.05,-5.31,11.21
92.06,-32.44,4.95
92.08,-36.91,-2.25
92.09,-19.14,-10.27
92.11,13.08,-18.5
92.13,47.62,-25.75
92.14,72.58,-30.36
92.16,80.47,-30.7
92.17,70.32,-25.75
92.19,47.07,-15.62
92.2,18.9,-1.57
92.22,-5.84,14.29
92.23,-21.03,29.72
92.25,-23.73,42.96
92.27,-13.93,53.09
92.28,6.18,59.98
92.3,33.1,63.97
92.31,62.62,65.44
92.33,90.46,64.64
92.34,112.86,61.67
92.36,127.47,56.7
92.38,134.01,50.17
92.39,134.55,42.78
92.41,133.03,35.37
92.42,134.1,28.61
92.44,141.42,22.8
92.45,156.36,17.83
92.47,177.37,13.27
92.48,200.44,8.67
92.5,220.65,3.71
92.52,233.95,-1.75
92.53,238.46,-7.71
92.55,234.78,-14.15
92.56,225.36,-20.87
92.58,213.35,-27.33
92.59,201.44,-32.52
92.61,191.05,-35.01
92.63,182.29,-33.41
92.64,174.23,-26.83
92.66,165.36,-15.39
92.67,154.19,-0.33
92.69,139.53,16.32
92.7,120.67,32.33
92.72,97.4,45.87
92.73,70.21,55.91
92.75,40.38,62.14
92.77,10.12,64.84
92.78,-17.65,64.45
92.8,-40.07,61.45
92.81,-55.36,56.28
92.83,-63.93,49.51
92.84,-68.77,41.82
92.86,-74.95,34.03
92.88,-88.09,26.88
92.89,-112.58,20.88
92.91,-150.28,16.08
92.92,-200.17,12.12
92.94,-259.26,8.39
92.95,-324.08,4.29
92.97,-391.8,-0.61
92.98,-460.18,-6.47
93.0,-526.52,-13.2
93.02,-586.58,-20.47
93.03,-634.37,-27.63
93.05,-663.7,-33.69
93.06,-670.55,-37.34
93.08,-655.38,-37.29
93.09,-623.68,-32.69
93.11,-583.9,-23.61
93.13,-543.86,-11.21
93.14,-507.24,2.57
93.16,-472.52,15.59
93.17,-434.61,26.22
93.19,-388.42,33.7
93.2,-332.09,38.06
93.22,-268.15,39.66
93.23,-202.14,38.71
93.25,-139.72,35.09
93.27,-84.27,28.5
93.28,-36.04,18.95
93.3,6.77,7.18
93.31,46.11,-5.24
93.33,82.71,-16.35
93.34,115.57,-24.61
93.36,142.8,-29.61
93.38,162.87,-32.34
93.39,175.59,-34.67
93.41,182.03,-38.32
93.42,183.96,-43.81
93.44,182.96,-50.08
93.45,179.8,-55.1
93.47,174.49,-57.06
93.48,166.82,-55.54
93.5,157.25,-51.68
93.52,147.19,-47.43
93.53,138.73,-44.1
93.55,133.66,-41.38
93.56,132.53,-37.44
93.58,134.29,-29.81
93.59,136.87,-16.65
93.61,138.34,2.84
93.63,138.0,28.58
93.64,136.62,60.02
93.66,135.68,95.95
93.67,136.16,133.79
93.69,137.65,168.86
93.7,138.46,194.87
93.72,136.54,205.89
93.73,130.63,199.02
93.75,120.89,176.35
93.77,108.64,144.77
93.78,95.51,113.46
93.8,82.47,90.24
93.81,69.56,78.63
93.83,56.1,77.16
93.84,41.31,81.04
93.86,24.83,85.1
93.88,6.97,86.41
93.89,-11.28,85.03
93.91,-28.54,83.05
93.92,-43.29,82.67
93.94,-54.04,84.57
93.95,-59.46,87.49
93.97,-58.58,89.07
93.98,-50.99,87.26
94.0,-37.0,81.71
94.02,-17.68,74.08
94.03,5.0,67.36
94.05,28.29,64.31
94.06,49.14,66.2
94.08,64.99,72.27
94.09,74.63,80.19
94.11,78.85,87.07
94.13,80.18,90.53
94.14,81.95,89.13
94.16,86.92,82.36
94.17,96.09,70.23
94.19,108.45,53.07
94.2,121.69,31.54
94.22,133.35,6.97
94.23,141.81,-18.52
94.25,146.67,-42.32
94.27,148.72,-62.1
94.28,149.32,-76.7
94.3,149.91,-86.67
94.31,151.67,-94.11
94.33,155.36,-101.87
94.34,161.33,-112.29
94.36,169.22,-126.34
94.38,178.0,-143.46
94.39,186.03,-161.93
94.41,191.39,-179.6
94.42,192.52,-194.38
94.44,188.69,-204.52
94.45,180.35,-208.63
94.47,169.16,-205.55
94.48,157.63,-194.6
94.5,148.59,-175.94
94.52,144.5,-150.66
94.53,146.78,-120.65
94.55,155.31,-88.03
94.56,168.36,-54.66
94.58,183.1,-22.02
94.59,196.43,8.5
94.61,206.01,35.4
94.63,210.91,56.94
94.64,211.7,71.7
94.66,210.0,79.23
94.67,207.43,80.55
94.69,204.84,77.94
94.7,201.79,74.18
94.72,196.86,71.55
94.73,188.32,71.24
94.75,174.81,73.37
94.77,155.81,77.39
94.78,131.89,82.63
94.8,104.64,88.55
94.81,76.51,94.72
94.83,50.65,100.57
94.84,30.36,105.39
94.86,18.33,108.42
94.88,15.97,109.06
94.89,22.97,107.1
94.91,37.34,102.74
94.92,56.04,96.51
94.94,75.78,89.04
94.95,93.6,80.93
94.97,107.19,72.68
94.98,114.86,64.63
95.0,115.41,56.94
95.02,108.26,49.68
95.03,93.81,42.82
95.05,73.86,36.33
95.06,51.64,30.21
95.08,31.43,24.52
95.09,17.4,19.37
95.11,12.46,14.86
95.13,17.24,11.09
95.14,29.71,7.98
95.16,45.81,5.36
95.17,60.64,2.96
95.19,69.98,0.5
95.2,71.35,-2.15
95.22,64.42,-4.84
95.23,50.52,-7.25
95.25,31.8,-9.02
95.27,10.38,-9.92
95.28,-12.21,-10.08
95.3,-35.01,-9.89
95.31,-57.62,-9.88
95.33,-79.93,-10.43
95.34,-102.05,-11.61
95.36,-124.31,-13.16
95.38,-147.22,-14.66
95.39,-171.23,-15.73
95.41,-196.62,-16.23
95.42,-223.32,-16.28
95.44,-250.92,-16.17
95.45,-278.86,-16.23
95.47,-306.64,-16.66
95.48,-334.21,-17.5
95.5,-362.0,-18.63
95.52,-390.69,-19.84
95.53,-420.82,-20.89
95.55,-451.95,-21.61
95.56,-482.04,-21.9
95.58,-507.09,-21.77
95.59,-521.54,-21.24
95.61,-519.55,-20.39
95.63,-496.89,-19.25
95.64,-452.94,-17.89
95.66,-391.84,-16.38
95.67,-322.22,-14.86
95.69,-255.12,-13.43
95.7,-201.1,-12.17
95.72,-167.27,-11.07
95.73,-156.14,-10.04
95.75,-165.73,-8.92
95.77,-191.15,-7.51
95.78,-226.32,-5.68
95.8,-264.7,-3.38
95.81,-299.64,-0.74
95.83,-324.41,1.93
95.84,-333.32,4.24
95.86,-323.52,5.86
95.88,-296.71,6.73
95.89,-259.31,7.13
95.91,-220.76,7.58
95.92,-190.36,8.64
95.94,-174.01,10.62
95.95,-172.57,13.43
95.97,-182.12,16.63
95.98,-196.23,19.68
96.0,-208.27,22.25
96.02,-213.27,24.33
96.03,-208.68,26.3
96.05,-194.32,28.63
96.06,-172.01,31.62
96.08,-144.97,35.22
96.09,-117.22,38.93
96.11,-92.83,41.89
96.13,-74.9,43.11
96.14,-64.69,41.62
96.16,-61.28,36.58
96.17,-61.72,27.48
96.19,-61.78,14.32
96.2,-57.32,-2.19
96.22,-45.17,-20.44
96.23,-24.18,-38.05
96.25,4.74,-52.33
96.27,38.99,-61.04
96.28,75.08,-63.09
96.3,109.5,-58.93
96.31,139.18,-50.27
96.33,161.84,-39.39
96.34,175.74,-28.29
96.36,179.82,-18.22
96.38,173.69,-9.66
96.39,158.0,-2.75
96.41,134.52,2.26
96.42,105.99,4.91
96.44,75.56,4.82
96.45,46.09,2.09
96.47,19.68,-2.54
96.48,-2.81,-7.92
96.5,-21.49,-13.08
96.52,-37.01,-17.66
96.53,-49.72,-21.93
96.55,-59.05,-26.33
96.56,-63.5,-30.86
96.58,-61.09,-34.87
96.59,-50.42,-37.27
96.61,-31.63,-37.29
96.63,-6.85,-35.01
96.64,20.33,-31.56
96.66,45.76,-28.6
96.67,65.93,-27.6
96.69,78.93,-29.15
96.7,84.62,-32.86
96.72,84.28,-37.71
96.73,80.11,-42.64
96.75,74.58,-47.03
96.77,69.95,-50.78
96.78,67.81,-54.08
96.8,68.78,-57.16
96.81,72.33,-60.02
96.83,77.08,-62.57
96.84,81.32,-64.76
96.86,83.45,-66.77
96.88,82.43,-68.9
96.89,77.84,-71.38
96.91,69.64,-74.08
96.92,58.24,-76.35
96.94,44.62,-77.24
96.95,30.51,-75.74
96.97,18.42,-71.27
96.98,11.03,-64.0
97.0,10.43,-54.74
97.02,17.24,-44.71
97.03,30.25,-35.1
97.05,46.7,-26.75
97.06,63.28,-19.98
97.08,77.16,-14.74
97.09,86.74,-10.72
97.11,91.7,-7.53
97.13,92.59,-4.8
97.14,90.24,-2.17
97.16,85.35,0.64
97.17,78.36,3.73
97.19,69.71,7.0
97.2,60.06,10.07
97.22,50.34,12.32
97.23,41.6,13.1
97.25,34.62,11.95
97.27,29.71,8.78
97.28,26.5,3.93
97.3,24.2,-1.87
97.31,21.88,-7.72
97.33,18.87,-12.74
97.34,15.21,-16.29
97.36,11.64,-18.11
97.38,9.51,-18.37
97.39,10.29,-17.58
97.41,14.92,-16.48
97.42,23.35,-15.71
97.44,34.36,-15.59
97.45,45.85,-16.04
97.47,55.49,-16.58
97.48,61.4,-16.7
97.5,62.68,-16.08
97.52,59.56,-14.8
97.53,53.04,-13.21
97.55,44.5,-11.71
97.56,35.16,-10.46
97.58,25.95,-9.25
97.59,17.53,-7.74
97.61,10.44,-5.64
97.63,5.16,-3.07
97.64,2.02,-0.51
97.66,0.92,1.38
97.67,1.13,2.1
97.69,1.46,1.49
97.7,0.71,-0.14
97.72,-1.62,-2.3
97.73,-4.94,-4.48
97.75,-7.68,-6.37
97.77,-7.9,-7.91
97.78,-4.35,-9.19
97.8,3.03,-10.32
97.81,12.89,-11.36
97.83,23.18,-12.36
97.84,31.93,-13.36
97.86,37.9,-14.45
97.88,40.83,-15.66
97.89,41.21,-16.86
97.91,39.86,-17.71
97.92,37.66,-17.77
97.94,35.31,-16.63
97.95,33.46,-14.12
97.97,32.58,-10.37
97.98,32.91,-5.84
98.0,34.38,-1.11
98.02,36.58,3.3
98.03,38.88,7.04
98.05,40.79,9.97
98.06,42.21,12.07
98.08,43.64,13.39
98.09,46.24,13.89
98.11,51.55,13.59
98.13,61.19,12.51
98.14,76.4,10.74
98.16,97.52,8.51
98.17,123.9,6.13
98.19,153.97,3.94
98.2,185.78,2.19
98.22,217.52,0.98
98.23,247.95,0.22
98.25,276.15,-0.38
98.27,301.05,-1.23
98.28,320.9,-2.77
98.3,333.19,-5.32
98.31,335.23,-8.92
98.33,325.11,-13.25
98.34,302.82,-17.68
98.36,270.66,-21.32
98.38,232.72,-23.36
98.39,193.79,-23.2
98.41,157.85,-20.72
98.42,126.96,-16.22
98.44,100.62,-10.31
98.45,76.17,-3.75
98.47,49.98,2.76
98.48,19.11,8.72
98.5,-16.96,13.84
98.52,-55.59,17.98
98.53,-91.36,21.09
98.55,-117.82,23.15
98.56,-129.75,24.13
98.58,-125.39,24.1
98.59,-107.1,23.17
98.61,-80.59,21.51
98.63,-52.87,19.33
98.64,-29.72,16.76
98.66,-14.06,13.88
98.67,-5.59,10.66
98.69,-1.78,7.13
98.7,0.42,3.4
98.72,3.09,-0.36
98.73,6.81,-3.9
98.75,11.1,-7.12
98.77,15.03,-10.07
98.78,18.12,-12.94
98.8,20.34,-15.98
98.81,21.78,-19.21
98.83,22.16,-22.38
98.84,20.78,-24.94
98.86,17.09,-26.25
98.88,11.44,-25.8
98.89,5.29,-23.4
98.91,0.89,-19.26
98.92,0.34,-13.9
98.94,4.59,-7.98
98.95,12.98,-2.1
98.97,23.23,3.28
98.98,32.35,7.91
99.0,37.49,11.66
99.02,36.68,14.49
99.03,29.35,16.4
99.05,16.29,17.4
99.06,-0.69,17.5
99.08,-19.32,16.72
99.09,-37.65,15.05
99.11,-54.47,12.54
99.13,-69.4,9.34
99.14,-82.76,5.71
99.16,-95.12,1.97
99.17,-107.02,-1.66
99.19,-118.8,-5.1
99.2,-130.45,-8.43
99.22,-141.58,-11.82
99.23,-151.24,-15.37
99.25,-157.83,-19.03
99.27,-159.55,-22.63
99.28,-154.89,-25.99
99.3,-143.39,-28.93
99.31,-125.93,-31.26
99.33,-104.66,-32.73
99.34,-82.31,-32.87
99.36,-61.57,-31.16
99.38,-44.36,-27.06
99.39,-31.81,-20.44
99.41,-24.19,-11.63
99.42,-21.15,-1.44
99.44,-21.89,8.95
99.45,-25.18,18.29
99.47,-29.68,25.53
99.48,-34.12,30.01
99.5,-37.58,31.6
99.52,-39.69,30.62
99.53,-40.74,27.76
99.55,-41.6,23.75
99.56,-43.41,19.2
99.58,-47.17,14.43
99.59,-53.15,9.53
99.61,-60.57,4.5
99.63,-67.49,-0.6
99.64,-71.43,-5.65
99.66,-70.3,-10.49
99.67,-63.25,-15.1
99.69,-51.08,-19.6
99.7,-35.87,-24.17
99.72,-20.19,-29.01
99.73,-6.19,-34.15
99.75,4.91,-39.53
99.77,12.84,-45.09
99.78,17.81,-50.78
99.8,20.14,-56.5
99.81,20.08,-61.89
99.83,17.94,-66.22
99.84,14.32,-68.49
99.86,9.99,-67.77
99.88,5.91,-63.63
99.89,2.81,-56.37
99.91,1.02,-46.95
99.92,0.26,-36.53
99.94,-0.24,-25.99
99.95,-1.51,-15.64
99.97,-4.44,-5.35
99.98,-9.12,5.04
100.0,-14.59,15.31
100.02,-18.75,24.73
