1496443804.00
64.000000
-0.00
-0.00
-0.00
-0.00
-0.00
-0.00
-0.00
-0.00
-0.00
-0.00
0.00
0.01
0.01
-0.00
-0.03
-0.05
-0.05
0.00
0.13
0.36
0.66
1.01
1.37
1.72
2.06
2.40
2.79
3.24
3.80
4.42
5.06
5.66
6.20
6.68
7.15
7.68
8.31
9.14
10.09
11.04
11.88
12.56
13.14
13.76
14.65
15.96
17.91
20.32
22.90
25.38
27.58
29.57
31.68
34.32
37.81
42.54
48.15
54.10
59.83
64.97
69.58
74.14
79.34
85.71
93.76
103.00
112.62
121.73
129.77
136.75
143.30
150.75
157.77
166.64
177.95
191.79
206.97
220.57
228.25
225.36
208.53
176.87
132.76
80.05
23.07
-34.94
-92.44
-149.16
-205.23
-260.37
-313.74
-363.87
-409.83
-450.91
-486.50
-515.74
-537.23
-549.22
-549.96
-538.37
-514.21
-478.67
-433.88
-382.45
-327.02
-269.84
-212.63
-156.66
-102.95
-52.37
-5.90
35.58
71.43
101.35
125.50
144.38
158.69
169.15
176.37
180.75
182.58
182.08
179.53
175.27
169.70
163.25
156.25
148.94
141.47
133.91
126.28
118.65
111.05
103.58
96.28
89.22
82.42
75.90
69.67
63.74
58.11
52.80
47.81
43.15
38.80
34.78
31.07
27.67
24.56
21.75
19.23
17.01
15.06
13.39
11.98
10.82
9.90
9.21
8.72
8.41
8.29
8.31
8.48
8.78
9.20
9.73
10.35
11.07
11.88
12.76
13.72
14.75
15.85
17.02
18.27
19.61
21.02
22.50
24.03
25.56
27.02
28.31
29.31
29.89
29.91
29.24
27.80
25.52
22.42
18.58
14.07
9.09
3.87
-1.37
-6.37
-10.92
-14.84
-17.99
-20.30
-21.76
-22.40
-22.30
-21.59
-20.39
-18.84
-17.04
-15.08
-13.03
-10.92
-8.77
-6.60
-4.41
-2.23
-0.02
2.23
4.53
6.90
9.38
12.02
14.73
17.52
20.36
23.25
26.21
29.26
32.46
35.86
39.57
43.47
47.53
51.73
56.06
60.56
65.24
70.15
75.38
81.05
86.95
92.97
99.05
105.17
111.32
117.52
123.79
130.19
136.83
143.34
149.48
154.99
159.58
162.86
164.35
163.35
158.82
152.67
145.51
137.74
129.60
121.27
112.86
104.43
96.07
87.92
80.20
72.70
65.37
58.18
51.07
43.99
36.89
29.74
22.63
15.81
9.23
3.00
-2.79
-8.10
-13.02
-17.66
-22.09
-26.20
-29.70
-32.37
-33.93
-34.28
-33.64
-32.49
-31.56
-31.51
-32.70
-35.13
-38.53
-42.53
-46.94
-52.00
-58.30
-66.63
-77.61
-91.32
-107.19
-124.30
-141.59
-158.34
-174.42
-190.20
-206.50
-224.30
-244.65
-268.36
-295.49
-324.80
-353.35
-376.95
-391.27
-393.37
-382.91
-362.34
-335.87
-307.81
-281.03
-256.38
-233.16
-210.24
-187.05
-163.94
-141.75
-121.20
-102.38
-84.83
-67.95
-51.58
-36.05
-22.22
-10.83
-2.13
4.27
9.32
14.00
19.02
24.62
30.58
36.43
41.67
45.94
49.03
50.97
51.92
52.20
52.12
51.89
51.47
50.69
49.31
47.18
44.34
40.96
37.37
33.77
30.25
26.76
23.18
19.42
15.45
11.29
6.96
2.49
-1.98
-6.15
-9.39
-10.92
-10.05
-6.47
-0.48
7.07
15.00
22.24
28.14
32.56
35.74
38.06
39.78
40.98
41.59
41.47
40.60
39.13
37.30
35.43
33.75
32.41
31.38
30.55
29.83
29.16
28.52
27.96
27.53
27.21
26.92
26.44
25.52
23.99
21.76
18.94
15.80
12.61
9.57
6.74
4.09
1.58
-0.75
-2.78
-4.43
-5.71
-6.81
-7.99
-9.46
-11.20
-12.93
-14.10
-14.07
-12.34
-8.75
-3.59
2.50
8.72
14.39
19.05
22.57
24.95
26.30
26.68
26.15
24.84
22.96
20.75
18.48
16.34
14.51
13.19
12.51
12.48
12.93
13.50
13.85
13.77
13.31
12.73
12.25
11.95
11.66
11.09
10.01
8.37
6.35
4.17
2.02
-0.04
-2.03
-3.98
-5.81
-7.45
-8.88
-10.18
-11.51
-12.94
-14.30
-15.14
-14.83
-12.85
-9.02
-3.65
2.56
8.71
14.05
18.12
20.88
22.52
23.38
23.66
23.42
22.60
21.17
19.26
17.15
15.24
13.85
13.08
12.79
12.60
12.11
11.00
9.12
6.44
3.06
-0.84
-4.96
-8.90
-12.29
-14.99
-17.24
-19.57
-22.70
-27.12
-32.86
-39.45
-46.12
-52.14
-57.00
-60.46
-62.31
-62.34
-60.25
-55.82
-49.02
-40.00
-29.05
-16.55
-3.08
10.39
22.30
30.71
33.70
30.07
19.92
4.69
-13.13
-30.78
-45.93
-57.31
-64.82
-69.32
-72.16
-74.61
-77.44
-80.73
-84.26
-87.93
-92.12
-97.44
-103.88
-110.01
-112.56
-107.09
-89.40
-57.03
-9.79
50.70
121.92
200.86
283.51
363.99
434.39
486.20
512.92
512.69
489.17
450.14
404.44
358.83
316.59
278.03
242.25
208.75
178.07
151.15
128.32
108.80
90.89
72.92
54.02
34.41
15.32
-1.82
-16.20
-28.22
-39.57
-53.00
-71.45
-96.93
-129.62
-167.40
-206.39
-242.12
-270.66
-289.21
-295.92
-289.54
-269.45
-236.43
-193.63
-146.80
-103.24
-69.59
-49.81
-44.30
-50.66
-65.38
-85.05
-106.40
-125.62
-138.15
-139.59
-128.00
-105.41
-77.71
-52.34
-35.06
-27.52
-26.96
-27.80
-23.94
-10.86
13.59
49.16
93.63
143.19
192.96
237.76
273.22
296.90
308.71
310.66
305.76
296.85
285.86
273.57
259.91
244.33
226.27
205.48
182.36
157.90
133.44
109.97
87.56
65.20
40.90
12.44
-21.83
-62.12
-106.44
-150.45
-188.14
-213.57
-223.34
-218.72
-206.11
-195.25
-195.39
-211.27
-241.02
-276.97
-309.09
-329.00
-332.36
-318.60
-289.04
-245.17
-188.16
-120.09
-45.61
27.56
89.75
131.33
145.51
130.36
89.95
34.36
-22.03
-63.64
-78.36
-62.10
-21.24
29.36
72.14
94.62
94.71
80.91
67.09
64.83
77.58
99.31
118.41
123.78
110.19
80.21
42.73
9.32
-10.07
-10.88
4.16
25.55
40.33
37.66
14.17
-24.22
-64.54
-92.58
-99.10
-83.06
-50.73
-11.98
23.81
50.09
63.40
62.89
50.24
29.98
9.25
-3.96
-3.91
10.31
34.25
59.88
79.22
87.23
83.08
69.56
51.35
33.32
19.13
10.84
8.83
12.11
18.50
25.18
29.35
28.95
23.20
12.66
-1.21
-17.00
-34.31
-54.21
-78.84
-110.02
-147.53
-188.01
-225.04
-251.20
-260.90
-252.86
-230.87
-202.37
-175.63
-156.83
-148.28
-148.27
-152.22
-154.37
-149.67
-135.13
-110.81
-80.03
-48.68
-23.54
-9.99
-10.12
-21.83
-39.66
-56.78
-67.20
-67.49
-57.31
-38.98
-16.23
6.97
27.62
44.20
56.81
66.66
75.50
85.00
96.38
110.19
126.45
144.67
164.12
183.91
203.19
221.07
236.44
247.75
252.99
250.08
237.42
214.63
182.97
145.16
104.81
65.56
30.47
1.56
-20.14
-34.41
-41.64
-42.64
-38.60
-30.94
-21.32
-11.55
-3.66
0.06
-2.83
-14.64
-36.79
-69.17
-109.56
-153.81
-196.58
-232.65
-258.23
-271.82
-274.45
-269.15
-260.20
-251.95
-247.82
-249.38
-255.76
-263.71
-268.38
-264.73
-248.89
-219.26
-176.82
-125.04
-69.08
-14.81
32.35
68.67
92.94
106.55
112.76
115.21
116.48
117.48
117.80
116.75
114.44
112.21
112.24
116.64
126.57
141.84
160.82
180.76
198.12
209.23
211.05
202.01
182.49
154.83
122.65
89.82
59.57
33.78
13.06
-3.13
-15.96
-26.86
-37.20
-48.01
-59.79
-72.57
-85.99
-99.54
-112.91
-126.16
-139.59
-153.62
-168.47
-183.96
-199.43
-213.77
-225.72
-234.04
-237.72
-236.32
-230.18
-220.59
-209.52
-199.05
-190.73
-184.80
-180.21
-175.08
-167.59
-156.93
-143.50
-128.36
-112.18
-94.35
-73.09
-46.63
-14.80
19.96
53.16
80.12
98.26
108.51
114.98
123.15
137.70
161.01
192.98
231.67
273.90
315.58
351.70
376.73
385.78
376.37
349.52
310.03
265.24
223.04
189.68
168.42
159.13
159.21
164.73
171.79
177.24
178.75
174.54
163.00
142.43
111.22
68.81
16.81
-40.20
-94.67
-137.55
-160.60
-158.72
-131.19
-81.78
-17.59
52.50
119.47
175.41
214.44
233.39
232.73
216.79
193.21
171.38
160.02
164.92
187.37
223.87
267.00
307.09
334.65
342.78
328.95
295.47
248.29
194.64
140.50
89.21
41.33
-4.40
-49.49
-94.48
-138.48
-179.26
-213.90
-239.75
-255.40
-261.39
-260.24
-255.82
-251.94
-251.06
-253.53
-257.81
-261.50
-262.64
-260.56
-256.06
-250.95
-247.18
-246.19
-248.22
-252.45
-257.28
-261.26
-263.76
-265.17
-266.52
-268.46
-270.47
-270.60
-266.33
-255.74
-238.46
-215.85
-190.36
-164.41
-139.68
-116.78
-95.58
-75.42
-55.27
-33.82
-9.60
18.61
51.33
88.22
128.22
170.26
213.59
257.75
301.93
344.20
381.31
409.18
424.27
424.85
411.63
387.68
357.42
325.60
296.28
272.56
256.45
248.91
249.86
258.10
271.19
285.68
297.58
303.01
299.02
284.23
259.50
227.83
193.82
162.28
136.82
118.77
107.23
100.10
95.50
92.84
92.71
95.89
102.15
109.40
114.25
113.29
104.61
88.42
66.65
41.81
15.87
-10.11
-35.72
-60.60
-84.11
-105.45
-124.03
-139.94
-153.88
-166.89
-179.80
-192.79
-205.13
-215.27
-221.30
-221.57
-215.50
-204.03
-189.48
-175.01
-163.41
-156.16
-153.09
-152.74
-153.29
-153.42
-152.84
-152.17
-152.43
-154.51
-158.83
-165.29
-173.41
-182.56
-192.08
-201.46
-210.45
-219.13
-227.86
-237.07
-247.07
-257.81
-269.03
-280.37
-291.72
-303.35
-315.92
-330.28
-347.41
-368.21
-393.27
-422.28
-453.43
-483.08
-506.29
-518.10
-515.31
-497.68
-468.09
-431.46
-392.79
-355.69
-321.71
-290.86
-262.56
-236.50
-212.82
-191.67
-172.72
-155.08
-137.63
-119.59
-100.97
-82.47
-65.20
-50.05
-37.21
-26.14
-15.74
-4.89
7.10
20.16
33.58
46.36
57.67
67.33
75.82
84.12
93.20
103.62
115.29
127.47
139.19
149.70
158.91
167.39
176.17
186.25
198.18
211.74
226.18
240.50
253.97
266.46
278.41
290.74
304.58
321.14
341.58
366.47
395.24
425.49
453.09
473.01
480.93
474.87
455.96
427.88
395.39
362.45
331.18
301.99
274.47
248.47
224.53
203.46
185.58
170.25
156.11
141.81
126.89
112.04
98.76
88.48
81.74
77.87
75.29
72.27
67.51
60.73
52.48
43.78
35.64
28.81
23.50
19.45
16.08
12.72
8.77
3.84
-2.20
-9.30
-17.42
-26.54
-36.73
-48.00
-60.21
-72.99
-85.78
-98.00
-109.09
-118.62
-126.15
-131.10
-132.84
-130.90
-125.37
-116.94
-106.88
-96.48
-86.63
-77.54
-68.80
-59.80
-50.12
-39.86
-29.43
-19.35
-9.87
-0.90
7.77
16.25
24.27
31.12
35.90
37.77
36.25
31.54
24.45
16.19
8.08
1.00
-4.76
-9.64
-14.52
-20.35
-27.63
-36.23
-45.30
-53.53
-59.62
-62.65
-62.31
-58.91
-53.12
-45.72
-37.31
-28.35
-19.18
-10.20
-1.83
5.56
11.89
17.55
23.46
30.65
39.77
50.71
62.46
73.49
82.13
87.13
87.86
84.23
76.77
66.37
54.21
41.65
30.03
20.43
13.64
10.12
10.10
13.69
20.64
30.24
41.03
51.00
58.07
60.68
58.35
51.75
42.34
31.82
21.66
12.87
6.06
1.59
-0.36
0.25
3.16
7.86
13.60
19.62
25.30
30.16
33.80
35.72
35.39
32.59
27.77
22.26
17.79
15.63
15.69
16.30
14.73
8.52
-3.44
-20.42
-40.25
-60.25
-77.98
-91.55
-99.55
-100.94
-95.39
-83.66
-67.90
-51.15
-36.34
-25.34
-18.47
-14.82
-13.18
-12.61
-12.77
-13.58
-14.89
-16.36
-17.69
-18.76
-19.72
-20.75
-21.78
-22.45
-22.30
-21.12
-19.12
-16.87
-15.00
-13.79
-13.10
-12.29
-10.72
-7.89
-3.69
1.60
7.54
13.70
19.67
25.12
29.71
32.91
34.35
33.92
32.13
30.04
28.75
28.59
28.53
26.59
20.87
11.08
-1.04
-12.87
-22.66
-30.67
-38.49
-47.02
-54.52
-56.81
-49.60
-31.72
-6.97
17.08
32.59
35.33
25.95
8.54
-12.76
-36.08
-61.70
-89.84
-118.52
-143.75
-161.72
-171.57
-176.13
-180.13
-186.84
-195.54
-201.60
-199.11
-184.55
-158.86
-126.75
-93.59
-62.16
-31.25
2.49
41.26
83.51
124.02
156.81
178.27
188.79
191.24
187.96
178.59
160.37
131.05
91.74
47.74
5.98
-29.01
-57.52
-83.70
-111.30
-139.52
-162.16
-171.19
-162.69
-140.81
-116.68
-102.83
-105.99
-123.10
-142.63
-150.64
-137.66
-102.54
-51.80
4.65
58.09
103.35
138.52
162.96
175.81
176.19
164.56
143.78
118.76
95.14
77.14
66.52
62.54
62.85
64.77
66.25
66.12
64.13
60.68
56.56
52.58
49.35
46.99
45.14
43.04
39.87
35.10
28.77
21.50
14.37
8.56
4.91
3.77
4.85
7.42
10.62
13.74
16.43
18.75
21.02
23.48
26.19
28.79
30.69
31.28
30.23
27.69
24.25
20.73
17.75
15.55
13.92
12.43
10.65
8.57
6.45
4.63
3.31
2.37
1.51
0.42
-1.01
-2.69
-4.50
-6.34
-8.21
-10.00
-11.38
-11.79
-10.59
-7.31
-1.93
5.16
13.19
21.29
28.67
34.72
39.10
41.84
43.35
44.39
45.85
48.35
51.98
56.11
59.62
61.52
61.47
60.17
59.14
60.01
63.71
69.95
77.24
83.76
88.16
90.36
91.54
93.45
97.59
104.48
113.46
122.91
130.52
133.39
128.24
111.94
83.03
43.07
-2.76
-46.54
-80.35
-99.54
-104.68
-101.31
-97.20
-98.50
-107.05
-119.92
-131.24
-135.55
-130.42
-117.05
-98.99
-79.93
-62.40
-48.02
-38.81
-37.75
-47.83
-69.35
-97.49
-122.57
-133.61
-123.69
-93.77
-52.43
-11.51
19.75
38.61
48.61
55.54
63.54
73.59
84.71
96.85
111.98
132.63
158.97
186.90
208.78
217.10
208.11
183.28
147.57
106.11
61.62
14.62
-34.19
-81.26
-119.27
-139.17
-133.94
-101.91
-47.98
17.92
84.08
140.32
179.85
199.62
199.54
181.24
147.18
100.11
43.41
-18.27
-78.52
-129.37
-162.99
-174.71
-165.97
-144.97
-124.46
-116.46
-126.90
-152.85
-183.90
-207.11
-212.91
-198.72
-168.90
-131.59
-94.50
-62.32
-36.60
-17.44
-5.44
-2.18
-9.11
-25.50
-47.49
-68.60
-81.99
-82.68
-69.18
-43.52
-9.87
27.23
64.24
98.90
130.00
156.56
177.52
192.07
199.73
200.74
195.92
186.53
173.98
159.66
144.78
130.19
116.38
103.46
91.36
79.98
69.13
58.52
47.69
36.10
23.31
9.27
-5.62
-20.54
-34.62
-47.18
-57.85
-66.53
-73.21
-77.88
-80.49
-81.20
-80.40
-78.77
-77.03
-75.70
-74.88
-74.33
-73.78
-73.13
-72.59
-72.43
-72.67
-72.82
-72.02
-69.41
-64.65
-58.04
-50.48
-43.11
-36.81
-31.98
-28.60
-26.29
-24.57
-23.03
-21.42
-19.65
-17.85
-16.23
-15.05
-14.46
-14.48
-15.01
-15.87
-16.82
-17.70
-18.32
-18.51
-18.08
-16.91
-14.96
-12.43
-9.70
-7.26
-5.44
-4.23
-3.23
-1.74
0.76
4.38
8.56
12.37
14.92
15.83
15.39
14.33
13.38
12.79
12.30
11.33
9.40
6.38
2.58
-1.42
-5.00
-7.68
-9.23
-9.69
-9.38
-8.87
-8.80
-9.82
-12.23
-15.90
-20.33
-24.78
-28.65
-31.58
-33.54
-34.73
-35.52
-36.36
-37.69
-39.76
-42.63
-46.02
-49.46
-52.50
-54.87
-56.50
-57.55
-58.14
-58.28
-57.88
-56.87
-55.31
-53.42
-51.43
-49.40
-47.07
-43.89
-39.14
-32.26
-23.10
-12.19
-0.74
9.59
17.27
21.43
22.31
21.21
20.07
20.70
24.10
30.12
37.53
44.56
49.60
51.66
50.68
47.32
42.75
38.25
35.04
33.91
35.10
38.04
41.44
43.60
43.07
39.35
33.23
26.55
21.45
19.31
20.20
23.02
26.16
28.36
29.19
28.81
27.47
25.01
21.00
15.10
7.68
-0.09
-6.60
-10.52
-11.46
-10.05
-7.63
-5.58
-4.80
-5.46
-7.21
-9.44
-11.61
-13.40
-14.68
-15.41
-15.57
-15.17
-14.24
-12.98
-11.64
-10.53
-9.80
-9.46
-9.31
-9.13
-8.80
-8.34
-7.85
-7.36
-6.82
-6.06
-5.13
-4.21
-3.71
-3.93
-4.80
-5.83
-6.17
-5.19
-2.72
0.69
3.98
6.11
6.47
5.23
3.28
1.80
1.72
3.29
5.86
8.21
9.00
7.40
3.40
-2.25
-8.44
-14.14
-18.66
-21.74
-23.36
-23.65
-22.83
-21.24
-19.47
-18.08
-17.47
-17.60
-18.11
-18.53
-18.60
-18.46
-18.51
-19.06
-20.02
-20.99
-21.46
-21.14
-20.18
-18.97
-17.79
-16.48
-14.46
-11.07
-6.05
0.15
6.56
12.13
16.24
18.98
20.99
23.00
25.47
28.35
31.25
33.75
35.73
37.38
39.16
41.54
44.64
48.13
51.08
52.19
50.10
44.00
34.23
22.49
11.51
4.16
2.25
5.91
13.44
22.19
29.78
34.94
37.75
39.11
39.96
40.59
40.67
39.60
37.18
33.76
30.14
27.02
24.65
22.73
20.73
18.33
15.70
13.43
12.22
12.44
13.93
16.07
18.15
19.65
20.48
20.91
21.41
22.41
24.11
26.37
28.74
30.54
31.14
30.14
27.66
24.27
20.91
18.54
17.73
18.54
20.51
22.88
24.85
25.73
24.96
22.28
17.68
11.56
4.58
-2.52
-9.19
-15.29
-21.09
-27.06
-33.53
-40.34
-46.94
-52.54
-56.54
-58.82
-59.74
-59.99
-60.26
-61.06
-62.60
-64.85
-67.57
-70.35
-72.69
-73.97
-73.67
-71.51
-67.50
-61.91
-55.17
-47.76
-40.26
-33.28
-27.45
-23.22
-20.64
-19.30
-18.53
-17.68
-16.45
-15.01
-13.75
-12.93
-12.47
-12.06
-11.44
-10.59
-9.83
-9.56
-9.85
-10.39
-10.68
-10.37
-9.56
-8.85
-8.93
-10.23
-12.56
-15.28
-17.58
-18.90
-19.11
-18.37
-16.91
-14.81
-11.92
-8.16
-3.62
1.21
5.59
8.82
10.55
10.86
10.21
9.14
8.08
7.17
6.28
5.22
3.93
2.40
0.69
-1.12
-3.01
-4.83
-6.42
-7.52
-7.98
-7.89
-7.54
-7.38
-7.76
-8.80
-10.41
-12.24
-13.96
-15.20
-15.63
-14.96
-13.00
-9.75
-5.53
-0.92
3.41
7.00
9.77
11.94
13.89
15.86
17.76
19.26
19.94
19.63
18.51
17.10
16.03
15.73
16.27
17.36
18.51
19.26
19.36
18.74
17.51
15.74
13.54
10.93
7.89
4.43
0.64
-3.31
-7.13
-10.49
-13.01
-14.43
-14.73
-13.98
-12.30
-9.76
-6.37
-2.26
2.25
6.58
9.99
11.94
12.18
10.95
8.84
6.51
4.53
3.20
2.46
2.13
1.85
1.35
0.44
-0.86
-2.42
-3.93
-5.09
-5.80
-6.14
-6.42
-7.11
-8.58
-10.95
-13.96
-16.95
-19.13
-19.83
-18.78
-16.22
-12.74
-9.08
-5.85
-3.40
-1.76
-0.78
-0.31
-0.22
-0.60
-1.64
-3.56
-6.44
-9.97
-13.57
-16.41
-17.89
-17.81
-16.58
-14.91
-13.42
-12.36
-11.54
-10.63
-9.48
-8.35
-7.74
-8.14
-9.70
-12.10
-14.66
-16.62
-17.41
-16.77
-14.81
-11.88
-8.32
-4.47
-0.58
3.18
6.61
9.46
11.44
12.30
11.96
10.57
8.45
6.06
3.79
1.99
0.91
0.74
1.42
2.68
3.98
4.68
4.36
3.02
1.10
-0.74
-1.83
-1.83
-0.88
0.54
1.71
1.96
0.95
-1.21
-3.90
-6.16
-7.06
-5.99
-2.94
1.46
6.17
10.12
12.52
13.12
12.18
10.29
8.07
5.88
3.72
1.17
-2.30
-7.09
-13.17
-20.10
-27.21
-33.86
-39.68
-44.56
-48.61
-51.99
-54.90
-57.47
-59.79
-61.96
-64.01
-66.13
-68.64
-72.07
-76.98
-83.57
-91.31
-98.81
-104.08
-105.38
-102.00
-94.64
-85.22
-76.04
-68.60
-62.83
-56.90
-48.08
-34.03
-14.05
10.36
36.03
59.22
76.92
87.68
91.54
89.70
84.19
77.66
73.24
73.64
79.67
89.00
96.43
96.25
85.41
65.87
44.14
28.17
23.15
29.01
40.74
51.52
56.25
53.42
44.63
32.25
17.66
1.08
-17.19
-35.31
-49.64
-56.16
-52.60
-39.82
-21.94
-4.91
5.41
5.13
-6.96
-29.34
-58.31
-88.68
-114.38
-129.32
-128.73
-110.95
-78.86
-39.63
-2.10
26.66
44.25
52.95
57.22
60.17
61.25
56.56
41.41
13.33
-26.29
-72.65
-119.45
-161.26
-194.70
-218.39
-232.18
-236.18
-230.43
-215.31
-192.03
-163.10
-132.32
-103.88
-80.78
-63.06
-47.43
-28.48
-1.65
34.27
76.02
117.46
152.63
178.59
196.27
209.21
220.97
233.04
244.34
252.25
254.34
249.64
238.89
223.69
205.78
186.37
166.40
146.93
129.35
114.83
103.67
94.61
84.90
71.29
51.63
26.17
-2.02
-27.94
-46.65
-55.20
-53.91
-46.15
-36.78
-30.20
-28.55
-31.25
-35.68
-38.62
-37.65
-31.97
-22.42
-10.89
0.46
9.78
15.82
17.92
15.96
10.37
1.97
-8.02
-18.27
-27.64
-35.46
-41.51
-46.01
-49.33
-51.83
-53.73
-55.05
-55.66
-55.26
-53.42
-49.75
-44.03
-36.43
-27.58
-18.43
-9.94
-2.70
3.17
7.99
12.21
16.12
19.54
21.87
22.26
19.93
14.61
6.60
-3.11
-13.22
-22.40
-29.55
-34.06
-35.82
-35.12
-32.56
-28.79
-24.39
-19.74
-14.93
-9.81
-4.09
2.51
10.02
18.12
26.10
33.07
38.22
41.15
42.00
41.33
39.90
38.33
37.04
36.14
35.68
35.70
36.22
37.10
37.92
37.91
36.13
31.78
24.58
14.97
4.04
-6.61
-15.41
-21.12
-23.08
-21.35
-16.56
-9.71
-1.95
5.70
12.47
17.83
21.53
23.42
23.45
21.72
18.54
14.47
10.24
6.60
4.04
2.70
2.36
2.62
3.11
3.63
4.16
4.71
5.15
5.19
4.48
2.76
0.10
-3.07
-6.05
-8.10
-8.68
-7.61
-5.03
-1.27
3.27
8.17
13.01
17.31
20.61
22.57
23.08
22.27
20.47
18.03
15.24
12.34
9.48
6.86
4.68
3.08
2.05
1.42
0.95
0.46
-0.17
-0.92
-1.74
-2.63
-3.66
-4.89
-6.38
-8.09
-9.81
-11.20
-11.81
-11.31
-9.58
-6.80
-3.40
0.13
3.39
6.17
8.44
10.26
11.60
12.33
12.26
11.31
9.62
7.60
5.75
4.48
3.95
3.95
4.10
4.06
3.68
3.09
2.55
2.28
2.30
2.41
2.25
1.49
-0.11
-2.60
-5.81
-9.37
-12.75
-15.35
-16.65
-16.32
-14.29
-10.83
-6.38
-1.45
3.48
8.03
11.93
15.00
17.13
18.31
18.64
18.27
17.44
16.41
15.35
14.35
13.33
12.15
10.66
8.83
6.70
4.46
2.27
0.23
-1.68
-3.57
-5.60
-7.93
-10.67
-13.80
-17.13
-20.28
-22.72
-23.92
-23.45
-21.16
-17.21
-12.06
-6.31
-0.52
4.86
9.54
13.41
16.43
18.60
19.96
20.60
20.66
20.31
19.72
18.96
18.05
16.95
15.66
14.25
12.84
11.60
10.57
9.70
8.79
7.65
6.13
4.18
1.86
-0.77
-3.70
-6.90
-10.28
-13.56
-16.26
-17.81
-17.76
-15.99
-12.76
-8.63
-4.20
0.03
3.81
7.11
9.96
12.41
14.42
15.97
17.08
17.79
18.17
18.27
18.10
17.67
16.98
16.11
15.12
14.12
13.14
12.16
11.13
9.97
8.66
7.19
5.63
3.95
2.11
-0.03
-2.60
-5.72
-9.32
-13.18
-16.85
-19.77
-21.45
-21.50
-19.89
-16.82
-12.74
-8.15
-3.43
1.15
5.46
9.35
12.65
15.14
16.63
17.10
16.75
15.95
15.07
14.34
13.76
13.13
12.26
11.08
9.71
8.43
7.43
6.78
6.34
5.82
4.90
3.36
1.16
-1.53
-4.37
-6.92
-8.84
-9.96
-10.47
-10.81
-11.44
-12.70
-14.65
-17.06
-19.56
-21.64
-22.63
-21.68
-17.76
-10.10
1.32
15.55
30.77
44.93
56.46
64.66
69.62
71.77
71.34
68.31
62.72
55.12
46.74
39.25
34.01
31.45
30.89
31.03
30.61
29.15
26.98
24.99
23.99
24.27
25.33
25.95
24.49
19.42
9.84
-4.08
-20.89
-38.15
-53.15
-63.81
-69.13
-69.42
-65.76
-59.53
-51.95
-44.02
-36.59
-30.39
-25.91
-23.00
-20.98
-18.84
-15.76
-11.52
-6.49
-1.35
3.39
7.54
11.22
14.64
17.96
21.41
25.43
30.84
38.45
48.62
60.70
73.14
84.13
92.69
99.63
107.52
119.63
138.26
163.13
190.86
215.78
231.60
233.00
216.79
182.02
130.27
65.82
-4.30
-70.76
-123.32
-153.33
-156.34
-134.21
-95.44
-53.12
-20.98
-8.96
-20.18
-50.47
-90.80
-130.93
-162.86
-182.42
-188.62
-182.19
-164.61
-138.36
-107.94
-80.36
-63.45
-62.85
-79.00
-106.14
-134.41
-154.04
-159.13
-149.67
-130.57
-108.72
-89.79
-76.25
-67.06
-58.80
-47.25
-28.77
-1.49
34.00
74.40
114.14
146.58
165.70
168.13
154.64
130.53
104.45
85.74
81.26
92.84
116.56
144.12
166.04
175.20
169.31
150.86
125.31
98.33
73.62
51.98
31.90
11.01
-12.65
-39.42
-67.39
-92.24
-107.93
-108.68
-91.70
-59.53
-20.10
15.79
39.09
46.45
41.55
32.70
27.90
30.58
38.31
45.08
45.64
39.01
28.95
21.48
20.95
27.45
37.26
45.40
48.67
47.14
43.38
40.29
39.11
39.26
39.66
40.69
44.87
55.40
73.48
96.10
115.82
123.27
111.30
78.42
30.03
-23.69
-71.68
-105.97
-123.87
-127.79
-123.14
-115.85
-110.56
-109.85
-114.35
-123.00
-133.61
-143.51
-150.60
-154.36
-156.32
-159.51
-166.77
-179.04
-194.20
-207.56
-213.45
-207.56
-188.56
-158.85
-123.63
-89.15
-60.73
-41.17
-30.15
-24.56
-19.70
-10.98
4.57
27.28
54.85
83.18
107.66
124.44
131.47
128.97
119.29
106.23
93.81
85.34
82.67
85.98
93.75
103.00
109.72
109.75
100.00
79.55
50.05
15.02
-21.59
-56.91
-89.78
-120.04
-147.18
-169.33
-183.48
-186.89
-178.96
-162.14
-141.24
-121.61
-107.07
-98.70
-95.10
-93.54
-91.20
-86.04
-76.69
-62.35
-42.83
-18.95
7.04
31.62
51.04
62.88
67.26
66.92
66.10
69.19
79.52
98.96
127.84
164.70
205.68
244.43
273.20
285.25
277.57
252.22
215.29
173.86
132.91
93.79
55.21
15.89
-23.21
-58.44
-85.13
-100.02
-102.93
-96.59
-85.26
-72.74
-61.36
-51.87
-44.18
-38.16
-34.06
-32.35
-33.34
-36.66
-41.12
-45.10
-47.10
-46.38
-43.24
-38.96
-35.15
-33.12
-33.40
-35.70
-39.24
-43.20
-46.90
-49.87
-51.61
-51.52
-48.98
-43.73
-36.11
-27.09
-18.08
-10.44
-5.28
-3.37
-5.23
-11.31
-21.87
-36.66
-54.49
-73.04
-89.36
-100.76
-105.80
-104.65
-98.82
-90.05
-79.27
-66.15
-49.48
-28.16
-2.02
27.86
59.55
90.85
119.78
144.48
163.00
173.26
173.63
163.74
145.23
121.69
97.85
78.15
65.16
58.98
57.51
57.72
57.06
54.25
49.08
41.57
31.11
16.41
-3.61
-28.64
-56.31
-82.49
-102.54
-112.76
-111.62
-100.36
-82.69
-63.89
-49.33
-42.76
-44.85
-52.48
-59.45
-58.47
-44.19
-15.68
22.69
62.18
92.37
104.26
92.86
58.83
8.36
-48.33
-99.62
-135.85
-151.82
-147.86
-128.89
-102.25
-75.02
-52.17
-35.88
-26.03
-21.35
-20.42
-22.04
-25.23
-28.79
-31.15
-30.51
-25.27
-14.51
1.71
22.23
45.24
68.58
90.23
108.43
121.75
129.25
130.71
126.85
119.29
110.17
101.40
94.06
88.17
83.04
77.73
71.53
64.10
55.52
46.39
37.79
31.08
27.11
25.30
23.16
17.05
3.90
-16.86
-42.34
-67.17
-86.11
-96.78
-100.81
-102.72
-107.10
-115.82
-127.15
-137.16
-142.34
-141.85
-137.77
-133.48
-131.37
-131.13
-130.01
-124.47
-112.32
-93.99
-72.20
-50.80
-33.11
-20.82
-13.81
-10.57
-9.11
-7.78
-5.93
-3.82
-2.35
-2.21
-3.04
-3.03
0.95
12.51
34.51
67.68
109.75
155.71
199.10
233.68
254.96
260.95
252.39
232.44
206.22
180.06
160.62
153.40
161.14
182.44
211.61
240.25
260.35
267.85
264.37
256.23
250.89
252.81
261.08
270.09
272.42
262.40
238.13
201.13
154.41
100.55
41.41
-20.82
-82.36
-137.83
-181.78
-211.20
-227.19
-234.83
-241.24
-252.78
-272.65
-299.88
-329.83
-355.84
-371.57
-373.04
-360.01
-335.83
-305.95
-275.63
-247.92
-222.99
-198.86
-173.26
-145.42
-116.80
-90.38
-69.07
-54.17
-44.57
-37.36
-29.16
-17.80
-3.28
12.05
24.41
29.97
26.39
13.78
-5.24
-26.44
-45.55
-59.48
-66.98
-68.29
-64.36
-56.00
-43.73
-28.19
-10.58
7.07
22.42
33.58
39.71
41.30
39.74
36.79
33.98
32.34
32.33
33.97
36.83
40.25
43.36
45.40
45.98
45.20
43.65
42.07
41.09
41.03
41.96
43.99
47.39
52.48
59.33
67.40
75.61
82.69
87.81
90.90
92.50
93.17
92.77
90.21
83.86
72.40
55.78
35.57
14.58
-4.13
-18.26
-27.04
-31.14
-32.21
-31.99
-31.71
-31.95
-32.77
-34.08
-35.81
-37.92
-40.12
-41.77
-42.00
-40.15
-36.25
-31.15
-26.36
-23.41
-23.17
-25.33
-28.49
-30.62
-29.87
-25.38
-17.59
-8.17
0.74
7.35
11.01
12.41
13.27
15.52
20.49
28.34
38.15
48.39
57.56
64.65
69.30
71.57
71.78
70.25
67.26
63.11
58.12
52.53
46.48
39.94
32.84
25.12
16.91
8.48
0.15
-7.87
-15.52
-22.87
-29.90
-36.39
-41.87
-45.72
-47.44
-46.80
-44.06
-39.76
-34.47
-28.55
-22.05
-14.93
-7.37
0.02
6.25
10.33
11.76
10.81
8.46
5.98
4.39
4.00
4.38
4.62
3.83
1.51
-2.23
-6.68
-10.76
-13.26
-13.15
-9.82
-3.35
5.56
15.64
25.45
33.75
39.81
43.48
45.07
45.10
43.94
41.78
38.59
34.32
29.07
23.21
17.29
11.90
7.46
4.07
1.56
-0.40
-2.09
-3.59
-4.88
-5.89
-6.72
-7.65
-9.02
-11.01
-13.50
-16.02
-17.92
-18.63
-17.88
-15.79
-12.74
-9.31
-6.18
-4.04
-3.58
-5.25
-9.12
-14.70
-20.92
-26.44
-30.07
-31.14
-29.59
-25.85
-20.54
-14.22
-7.37
-0.41
6.13
11.71
15.85
18.37
19.42
19.60
19.76
20.89
23.95
29.55
37.70
47.62
57.74
66.05
70.71
70.54
65.39
56.04
43.72
29.72
15.06
0.55
-13.10
-25.14
-34.85
-41.78
-45.94
-47.77
-48.03
-47.47
-46.64
-45.81
-44.97
-44.05
-42.95
-41.66
-40.18
-38.54
-36.79
-34.95
-32.99
-30.85
-28.51
-25.95
-23.24
-20.50
-17.79
-15.11
-12.45
-9.82
-7.36
-5.29
-3.82
-2.93
-2.36
-1.57
0.08
3.21
8.26
15.33
24.12
33.88
43.44
51.33
56.06
56.48
52.15
43.50
31.95
19.66
9.06
2.36
0.96
5.04
13.45
23.90
33.50
39.55
40.24
35.21
25.58
13.51
1.47
-8.61
-15.91
-20.74
-24.17
-27.34
-30.75
-34.06
-36.32
-36.49
-33.99
-29.00
-22.35
-15.12
-8.27
-2.43
2.11
5.36
7.48
8.88
10.23
12.34
15.91
21.14
27.49
33.88
39.19
42.94
45.63
48.47
52.61
58.32
64.57
69.36
70.66
67.31
59.57
48.88
37.05
25.43
14.51
4.02
-6.43
-16.86
-26.77
-35.43
-42.41
-48.02
-53.24
-59.26
-66.82
-75.71
-84.70
-91.94
-95.62
-94.68
-89.25
-80.59
-70.68
-61.50
-54.38
-49.53
-46.12
-42.82
-38.43
-32.44
-25.11
-16.99
-8.42
0.87
11.51
23.99
38.02
52.42
65.48
75.68
82.17
84.95
84.44
81.06
74.86
65.74
53.84
39.82
24.92
10.52
-2.45
-13.80
-24.05
-33.92
-43.74
-53.18
-61.20
-66.56
-68.28
-65.97
-59.94
-50.96
-40.16
-28.88
-18.57
-10.61
-6.05
-5.24
-7.67
-12.04
-16.75
-20.37
-22.08
-21.74
-19.60
-16.01
-11.20
-5.18
2.08
10.46
19.61
28.97
37.84
45.54
51.50
55.37
57.05
56.81
55.31
53.45
51.99
51.23
50.72
49.37
45.93
39.60
30.48
19.61
8.56
-1.26
-9.13
-15.21
-20.24
-24.98
-29.68
-33.87
-36.63
-37.09
-34.99
-30.86
-25.96
-21.71
-19.29
-19.16
-21.13
-24.51
-28.54
-32.58
-36.22
-39.17
-41.08
-41.53
-40.08
-36.56
-31.16
-24.56
-17.68
-11.50
-6.70
-3.38
-0.94
1.61
5.34
10.90
18.23
26.61
34.93
42.15
47.60
51.08
52.65
52.35
50.03
45.35
38.14
28.63
17.66
6.54
-3.31
-10.67
-14.77
-15.32
-12.43
-6.51
1.84
11.81
22.40
32.49
40.96
46.87
49.63
49.03
45.19
38.56
29.85
19.88
9.52
-0.53
-9.85
-18.19
-25.35
-31.00
-34.62
-35.68
-33.86
-29.18
-21.98
-12.84
-2.53
7.98
17.46
24.61
28.39
28.46
25.36
20.16
13.87
6.86
-1.22
-10.89
-22.15
-34.03
-44.82
-52.89
-57.41
-58.70
-57.86
-56.01
-53.60
-50.38
-45.70
-39.25
-31.53
-23.95
-18.31
-16.18
-18.17
-23.70
-31.15
-38.37
-43.27
-44.30
-40.67
-32.48
-20.59
-6.53
7.78
20.33
29.51
34.52
35.54
33.67
30.45
27.38
25.56
25.65
27.83
31.99
37.62
43.79
49.23
52.61
52.94
50.04
44.68
38.23
32.03
26.66
21.54
15.17
5.94
-6.98
-22.89
-39.65
-54.41
-64.65
-69.16
-68.25
-63.32
-56.05
-47.72
-39.00
-30.17
-21.56
-13.81
-7.66
-3.62
-1.65
-1.14
-1.13
-0.73
0.63
3.17
6.79
11.26
16.34
21.82
27.59
33.58
39.72
45.79
51.34
55.77
58.49
59.28
58.39
56.40
53.82
50.75
46.69
40.85
32.61
21.83
8.97
-5.06
-19.19
-32.34
-43.44
-51.51
-55.85
-56.28
-53.44
-48.69
-43.67
-39.75
-37.45
-36.47
-35.94
-35.10
-33.61
-31.68
-29.75
-28.07
-26.52
-24.68
-22.12
-18.72
-14.73
-10.50
-6.19
-1.53
3.96
10.64
18.33
26.27
33.45
39.14
43.21
46.08
48.28
49.96
50.65
49.50
45.79
39.36
30.84
21.25
11.70
2.97
-4.50
-10.51
-14.99
-18.08
-20.19
-22.08
-24.56
-28.15
-32.73
-37.52
-41.49
-43.82
-44.43
-43.97
-43.56
-44.28
-46.59
-50.18
-54.02
-56.82
-57.53
-55.82
-52.17
-47.66
-43.41
-40.09
-37.59
-35.27
-32.28
-27.97
-21.87
-13.32
-1.36
15.07
36.39
61.61
88.09
112.26
130.72
141.47
144.21
140.08
130.70
117.58
101.88
84.73
67.45
51.42
37.55
25.90
15.55
5.20
-6.15
-18.54
-31.11
-42.46
-51.34
-57.12
-59.89
-60.33
-59.29
-57.55
-55.65
-53.96
-52.67
-51.87
-51.36
-50.58
-48.54
-44.12
-36.45
-25.39
-11.65
3.31
17.75
30.13
39.43
45.25
47.69
47.16
44.33
39.91
34.65
29.16
23.80
18.70
13.89
9.37
5.21
1.54
-1.59
-4.15
-6.15
-7.58
-8.51
-9.27
-10.56
-13.26
-18.10
-25.08
-33.21
-40.73
-45.60
-46.37
-42.74
-35.67
-27.01
-18.85
-12.90
-10.07
-10.48
-13.61
-18.48
-23.92
-28.77
-32.12
-33.46
-32.78
-30.54
-27.33
-23.71
-19.81
-15.45
-10.14
-3.38
5.06
15.01
25.84
36.52
45.81
52.53
55.89
55.72
52.54
47.54
42.23
38.02
35.75
35.44
36.25
36.80
35.64
31.84
25.23
16.46
6.60
-3.24
-12.24
-19.89
-25.86
-29.87
-31.67
-31.32
-29.29
-26.64
-24.63
-24.25
-25.84
-28.87
-32.24
-34.75
-35.60
-34.62
-32.23
-29.15
-26.09
-23.47
-21.30
-19.31
-17.03
-14.06
-10.27
-5.77
-0.86
4.20
9.35
14.76
20.58
26.69
32.58
37.38
40.16
40.22
37.35
31.82
24.40
16.23
8.64
2.95
0.12
0.45
3.33
7.32
10.39
10.54
6.37
-2.43
-14.90
-29.05
-42.39
-52.59
-58.05
-58.24
-53.65
-45.51
-35.46
-25.08
-15.70
-8.21
-3.04
-0.16
0.86
0.75
0.32
0.24
0.91
2.23
3.80
5.01
5.43
5.05
4.32
3.94
4.53
6.51
10.08
15.37
22.37
30.83
40.00
48.50
54.64
56.94
54.74
48.36
38.87
27.63
15.85
4.62
-5.05
-12.03
-15.39
-14.76
-10.75
-4.75
1.58
7.02
11.17
14.28
16.78
18.71
19.59
18.76
15.85
11.17
5.50
-0.16
-5.11
-9.03
-11.80
-13.25
-12.98
-10.69
-6.57
-1.64
2.41
3.78
1.38
-4.56
-12.51
-20.23
-25.66
-27.74
-26.68
-23.73
-20.39
-17.90
-16.83
-17.16
-18.57
-20.72
-23.19
-25.44
-26.65
-25.98
-23.00
-18.21
-13.19
-10.29
-11.71
-18.59
-30.35
-44.74
-58.54
-68.43
-71.99
-68.20
-57.57
-41.85
-23.63
-5.65
9.67
20.78
27.17
29.33
28.43
25.95
23.23
21.33
20.91
22.13
24.62
27.49
29.57
29.65
27.13
22.19
15.91
9.76
5.09
2.66
2.57
4.46
7.85
12.45
18.00
24.08
29.82
34.06
35.68
34.14
29.78
23.70
17.32
11.75
7.52
4.59
2.60
1.38
1.07
2.11
4.82
9.06
14.15
18.95
22.39
23.84
23.33
21.49
19.24
17.31
16.07
15.35
14.66
13.43
11.32
8.29
4.58
0.55
-3.53
-7.53
-11.45
-15.27
-18.79
-21.64
-23.30
-23.34
-21.48
-17.81
-12.71
-6.82
-0.90
4.30
8.15
10.28
10.59
9.27
6.69
3.33
-0.31
-3.83
-6.94
-9.62
-11.99
-14.35
-16.89
-19.52
-21.70
-22.57
-21.24
-17.24
-10.75
-2.66
5.71
13.00
18.17
20.65
20.37
17.70
13.33
8.24
3.52
0.25
-0.86
0.43
3.75
8.25
12.88
16.67
18.92
19.32
17.85
14.77
10.54
5.76
1.15
-2.62
-5.13
-6.29
-6.39
-5.99
-5.63
-5.69
-6.32
-7.34
-8.43
-9.17
-9.06
-7.71
-4.97
-1.29
2.32
4.54
4.32
1.38
-3.62
-9.45
-14.96
-19.63
-23.60
-27.25
-30.70
-33.44
-34.60
-33.60
-30.61
-26.59
-22.77
-19.89
-17.80
-15.68
-12.74
-8.97
-5.49
-4.11
-6.43
-12.86
-22.12
-31.69
-38.82
-41.86
-40.88
-37.49
-33.84
-31.44
-30.54
-30.24
-29.15
-26.03
-19.99
-10.36
3.46
21.63
43.22
65.70
85.31
98.26
102.32
97.86
87.60
75.29
63.82
54.11
45.18
35.25
23.12
9.04
-5.48
-18.39
-28.06
-33.72
-35.49
-34.03
-30.07
-24.45
-18.13
-12.27
-8.11
-6.66
-8.22
-12.17
-17.06
-21.04
-22.35
-19.89
-13.45
-3.84
7.46
18.75
28.64
36.35
41.73
45.00
46.36
45.80
43.25
38.80
32.99
26.75
21.11
16.76
13.81
11.84
10.25
8.59
6.76
4.92
3.26
1.76
0.24
-1.49
-3.42
-5.21
-6.35
-6.38
-5.14
-2.95
-0.38
1.93
3.64
4.87
6.11
7.93
10.65
14.09
17.60
20.27
21.29
20.30
17.59
13.91
10.08
6.57
3.13
-1.04
-6.87
-14.78
-24.34
-34.34
-43.22
-49.59
-52.64
-52.21
-48.56
-42.24
-33.98
-24.79
-15.91
-8.61
-3.82
-1.80
-1.90
-2.91
-3.43
-2.46
0.26
4.24
8.45
11.85
13.76
14.16
13.68
13.45
14.59
17.90
23.50
30.81
38.80
46.30
52.43
56.71
59.05
59.57
58.39
55.53
51.04
45.10
38.19
31.02
24.38
18.82
14.54
11.26
8.37
5.14
1.05
-3.99
-9.51
-14.62
-18.35
-20.06
-19.82
-18.54
-17.86
-19.67
-25.56
-36.31
-51.52
-69.58
-87.95
-103.77
-114.48
-118.57
-115.88
-107.57
-95.64
-82.37
-69.62
-58.58
-49.69
-42.86
-37.72
-33.81
-30.66
-27.78
-24.71
-21.12
-16.89
-12.24
-7.62
-3.51
-0.24
2.21
4.24
6.42
9.17
12.49
15.88
18.48
19.50
18.51
15.68
11.66
7.36
3.55
0.62
-1.35
-2.55
-3.18
-3.42
-3.37
-3.14
-2.89
-2.86
-3.25
-4.11
-5.30
-6.48
-7.22
-7.22
-6.37
-4.84
-2.96
-1.04
0.68
2.11
3.26
4.12
4.65
4.79
4.50
3.92
3.33
3.12
3.71
5.46
8.57
13.05
18.60
24.54
30.00
33.98
35.79
35.31
33.08
30.06
27.25
25.25
23.94
22.73
20.91
18.13
14.57
10.95
8.05
6.35
5.73
5.63
5.39
4.71
3.78
3.14
3.29
4.25
5.49
6.11
5.34
2.96
-0.54
-4.17
-6.92
-8.17
-7.90
-6.60
-4.94
-3.55
-2.76
-2.70
-3.32
-4.51
-6.19
-8.26
-10.62
-13.01
-15.02
-16.17
-16.02
-14.38
-11.36
-7.37
-2.95
1.41
5.34
8.63
11.10
12.58
12.88
11.93
9.92
7.32
4.72
2.66
1.36
0.73
0.44
0.17
-0.27
-0.87
-1.49
-2.11
-2.77
-3.73
-5.19
-7.23
-9.79
-12.65
-15.54
-18.17
-20.18
-21.12
-20.54
-18.14
-14.00
-8.58
-2.69
2.77
7.20
10.36
12.41
13.67
14.37
14.61
14.31
13.39
11.87
9.94
7.76
5.55
3.38
1.27
-0.76
-2.59
-4.11
-5.26
-6.07
-6.67
-7.24
-7.93
-8.89
-10.24
-12.01
-14.10
-16.17
-17.63
-17.81
-16.19
-12.67
-7.71
-2.09
3.28
7.78
11.19
13.67
15.49
16.82
17.64
17.81
17.22
15.94
14.20
12.32
10.54
8.94
7.56
6.45
5.72
5.49
5.74
6.20
6.47
6.16
5.06
3.28
1.16
-0.97
-2.85
-4.36
-5.37
-5.67
-4.93
-2.91
0.36
4.47
8.68
12.29
14.80
16.12
16.52
16.36
15.89
15.14
13.99
12.43
10.61
8.91
7.62
6.82
6.21
5.28
3.55
0.99
-2.01
-4.66
-6.24
-6.48
-5.78
-4.95
-4.93
-6.26
-8.89
-12.26
-15.61
-18.29
-19.91
-20.26
-19.09
-16.08
-10.98
-4.01
3.88
11.10
15.91
17.14
14.72
9.74
4.02
-0.71
-3.41
-4.09
-3.55
-2.88
-2.93
-4.01
-5.89
-8.04
-9.98
-11.41
-12.30
-12.80
-13.12
-13.40
-13.73
-14.20
-14.90
-15.88
-16.98
-17.86
-17.97
-16.81
-14.19
-10.26
-5.55
-0.74
3.57
7.07
9.65
11.36
12.29
12.52
12.11
11.14
9.73
8.05
6.25
4.51
2.95
1.68
0.70
-0.09
-0.80
-1.54
-2.33
-3.07
-3.69
-4.20
-4.79
-5.73
-7.24
-9.27
-11.44
-13.11
-13.61
-12.52
-9.83
-5.95
-1.49
2.88
6.71
9.77
12.04
13.58
14.45
14.67
14.23
13.20
11.71
9.99
8.30
6.86
5.69
4.69
3.64
2.39
0.95
-0.53
-1.74
-2.47
-2.69
-2.60
-2.53
-2.88
-3.91
-5.62
-7.76
-9.79
-11.08
-11.06
-9.42
-6.23
-1.87
3.07
7.98
12.45
16.20
19.07
21.00
21.90
21.72
20.49
18.44
15.91
13.33
10.99
9.05
7.40
5.75
3.85
1.58
-0.89
-3.23
-5.07
-6.22
-6.69
-6.78
-6.84
-7.20
-8.07
-9.47
-11.28
-13.17
-14.68
-15.28
-14.56
-12.41
-9.05
-4.99
-0.83
2.92
5.96
8.19
9.59
10.19
9.97
9.01
7.48
5.72
4.11
2.98
2.47
2.47
2.68
2.71
2.36
1.55
0.47
-0.62
-1.54
-2.30
-3.05
-4.05
-5.49
-7.43
-9.73
-12.09
-14.11
-15.33
-15.44
-14.35
-12.24
-9.52
-6.65
-3.96
-1.53
0.78
3.11
5.45
7.56
9.01
9.51
9.03
7.89
6.57
5.54
5.02
4.91
4.94
4.80
4.25
3.26
1.95
0.49
-0.87
-1.96
-2.69
-3.09
-3.37
-3.91
-5.07
-7.00
-9.46
-11.76
-13.02
-12.46
-9.82
-5.44
-0.16
5.07
9.54
12.95
15.33
16.92
17.81
18.00
17.36
15.88
13.77
11.40
9.16
7.35
6.01
5.00
4.07
3.10
2.16
1.52
1.51
2.19
3.29
4.15
4.05
2.47
-0.65
-4.91
-9.61
-14.00
-17.54
-19.95
-21.16
-21.23
-20.25
-18.36
-15.79
-12.88
-9.97
-7.43
-5.60
-4.72
-4.90
-5.97
-7.37
-8.22
-7.50
-4.54
0.65
7.23
13.73
18.58
20.74
20.04
17.13
13.08
8.86
4.95
1.30
-2.40
-6.38
-10.58
-14.71
-18.40
-21.53
-24.09
-26.15
-27.51
-27.63
-25.81
-21.56
-14.94
-6.66
2.13
10.25
16.86
21.56
24.30
25.16
24.23
21.66
17.88
13.68
10.16
8.31
8.57
10.50
12.85
14.07
13.10
9.94
5.80
2.62
2.12
5.05
10.79
17.71
23.92
27.99
29.34
28.04
24.50
19.10
12.27
4.69
-2.47
-7.76
-9.86
-8.23
-3.50
2.68
8.24
11.47
11.68
9.27
5.48
1.74
-0.89
-1.97
-1.70
-0.60
0.75
1.88
2.49
2.40
1.53
-0.11
-2.30
-4.57
-6.30
-6.88
-6.04
-3.99
-1.51
0.29
0.39
-1.73
-5.86
-11.08
-16.02
-19.42
-20.54
-19.42
-16.86
-14.02
-12.05
-11.60
-12.66
-14.61
-16.51
-17.42
-16.72
-14.16
-9.93
-4.50
1.45
7.17
12.01
15.49
17.42
17.86
17.10
15.49
13.38
11.00
8.55
6.13
3.82
1.72
-0.11
-1.59
-2.69
-3.40
-3.78
-4.00
-4.28
-4.81
-5.64
-6.59
-7.34
-7.62
-7.37
-6.89
-6.71
-7.44
-9.46
-12.71
-16.69
-20.54
-23.34
-24.34
-23.20
-19.96
-15.05
-9.09
-2.73
3.43
8.93
13.35
16.43
17.99
18.04
16.79
14.65
12.12
9.70
7.77
6.51
5.96
5.90
6.05
6.10
5.83
5.19
4.24
3.15
2.02
0.87
-0.39
-1.85
-3.62
-5.79
-8.35
-11.22
-14.14
-16.65
-18.15
-18.08
-16.11
-12.35
-7.30
-1.69
3.81
8.76
13.00
16.56
19.38
21.30
22.08
21.60
20.02
17.80
15.53
13.68
12.42
11.57
10.73
9.57
7.97
6.05
4.05
2.26
0.80
-0.36
-1.32
-2.25
-3.34
-4.73
-6.63
-9.21
-12.47
-16.19
-19.90
-22.85
-24.29
-23.65
-20.79
-16.03
-10.07
-3.73
2.33
7.72
12.34
16.15
19.07
20.92
21.48
20.63
18.55
15.59
12.25
9.02
6.20
3.91
2.15
0.88
0.16
0.05
0.67
2.01
3.88
5.90
7.52
8.14
7.24
4.49
-0.13
-6.29
-13.27
-20.03
-25.45
-28.49
-28.54
-25.51
-19.89
-12.52
-4.41
3.49
10.40
15.81
19.41
21.09
20.95
19.25
16.37
12.86
9.23
6.00
3.46
1.80
0.97
0.76
0.91
1.15
1.26
1.11
0.62
-0.22
-1.38
-2.82
-4.57
-6.69
-9.26
-12.28
-15.48
-18.30
-20.01
-19.98
-18.00
-14.35
-9.69
-4.76
-0.07
4.19
7.99
11.29
13.88
15.43
15.67
14.65
12.70
10.38
8.20
6.48
5.20
4.19
3.18
2.00
0.66
-0.70
-1.86
-2.71
-3.23
-3.63
-4.22
-5.34
-7.28
-10.13
-13.72
-17.62
-21.12
-23.40
-23.75
-21.81
-17.73
-12.14
-5.99
-0.17
4.75
8.59
11.49
13.65
15.19
16.03
16.03
15.14
13.52
11.50
9.48
7.72
6.22
4.75
3.05
1.00
-1.23
-3.28
-4.78
-5.61
-5.92
-6.12
-6.49
-7.06
-7.60
-7.83
-7.76
-7.70
-8.04
-8.83
-9.55
-9.11
-6.47
-1.18
6.29
14.58
22.03
27.29
29.81
29.83
28.15
25.56
22.56
19.18
15.17
10.30
4.60
-1.49
-7.23
-11.82
-14.72
-15.87
-15.76
-15.18
-14.84
-15.19
-16.21
-17.66
-19.21
-20.64
-21.85
-22.67
-22.78
-21.74
-19.14
-14.83
-9.10
-2.61
3.89
9.79
14.81
18.88
22.04
24.24
25.32
25.04
23.34
20.36
16.45
12.14
7.94
4.25
1.28
-0.87
-2.21
-2.81
-2.76
-2.22
-1.45
-0.84
-0.84
-1.91
-4.40
-8.39
-13.55
-19.10
-23.94
-26.92
-27.26
-24.80
-20.08
-14.09
-7.88
-2.17
2.73
6.85
10.32
13.12
15.08
15.97
15.70
14.38
12.39
10.18
8.13
6.42
4.97
3.54
1.92
0.00
-2.05
-3.94
-5.38
-6.19
-6.49
-6.59
-6.94
-7.94
-9.78
-12.34
-15.23
-17.82
-19.44
-19.53
-17.78
-14.21
-9.11
-2.99
3.59
10.09
16.02
21.02
24.77
27.04
27.65
26.63
24.17
20.76
17.05
13.73
11.33
10.03
9.60
9.54
9.26
8.39
6.87
5.01
3.18
1.69
0.59
-0.36
-1.53
-3.29
-5.81
-8.97
-12.36
-15.28
-16.93
-16.63
-14.06
-9.40
-3.24
3.52
10.03
15.65
20.03
23.09
24.89
25.49
25.02
23.64
21.68
19.59
17.82
16.75
16.48
16.84
17.40
17.66
17.25
16.09
14.37
12.46
10.63
8.94
7.16
5.01
2.32
-0.78
-3.96
-6.82
-9.00
-10.33
-10.67
-9.94
-8.16
-5.51
-2.40
0.64
3.15
4.90
6.06
6.96
7.86
8.68
8.90
7.88
5.20
0.96
-4.11
-8.96
-12.57
-14.37
-14.41
-13.33
-11.93
-10.85
-10.23
-9.74
-8.94
-7.72
-6.51
-6.27
-8.00
-12.26
-18.72
-26.24
-33.20
-38.01
-39.57
-37.50
-32.17
-24.54
-15.95
-7.87
-1.50
2.56
4.37
4.61
4.18
3.74
3.52
3.33
2.89
2.13
1.20
0.41
-0.06
-0.34
-0.76
-1.65
-3.11
-4.88
-6.50
-7.54
-7.84
-7.58
-7.29
-7.56
-8.86
-11.30
-14.48
-17.65
-19.90
-20.42
-18.82
-15.24
-10.24
-4.59
1.00
6.03
10.22
13.40
15.46
16.35
16.16
15.12
13.66
12.21
11.09
10.40
10.01
9.69
9.21
8.44
7.34
5.96
4.37
2.67
0.91
-0.85
-2.60
-4.37
-6.23
-8.21
-10.23
-12.07
-13.30
-13.38
-11.92
-8.81
-4.37
0.78
5.90
10.38
13.94
16.53
18.26
19.19
19.33
18.70
17.39
15.62
13.62
11.60
9.67
7.91
6.36
5.15
4.38
4.06
4.04
4.03
3.71
2.87
1.41
-0.67
-3.36
-6.62
-10.31
-13.98
-16.97
-18.46
-17.84
-14.98
-10.32
-4.72
0.86
5.75
9.70
12.78
15.18
16.98
18.08
18.24
17.29
15.25
12.42
9.23
6.15
3.50
1.42
-0.16
-1.37
-2.36
-3.21
-3.93
-4.56
-5.16
-5.87
-6.89
-8.34
-10.28
-12.66
-15.34
-18.04
-20.38
-21.90
-22.12
-20.71
-17.62
-13.14
-7.82
-2.31
2.84
7.27
10.86
13.58
15.39
16.21
16.00
14.80
12.88
10.67
8.63
7.06
6.02
5.26
4.46
3.35
1.92
0.35
-1.08
-2.17
-2.92
-3.57
-4.50
-6.01
-8.27
-11.23
-14.59
-17.84
-20.31
-21.26
-20.15
-16.82
-11.61
-5.28
1.20
6.94
11.35
14.19
15.48
15.41
14.29
12.45
10.26
8.05
6.10
4.51
3.29
2.31
1.37
0.32
-0.95
-2.43
-4.03
-5.59
-7.01
-8.24
-9.32
-10.35
-11.44
-12.69
-14.20
-15.88
-17.46
-18.44
-18.20
-16.24
-12.42
-7.05
-0.88
5.22
10.55
14.74
17.71
19.47
19.96
19.04
16.66
13.09
8.98
5.22
2.55
1.31
1.29
1.85
2.24
1.99
0.97
-0.55
-2.23
-3.79
-5.18
-6.50
-7.95
-9.66
-11.71
-13.98
-16.21
-17.94
-18.61
-17.74
-15.07
-10.74
-5.26
0.69
6.44
11.56
15.79
19.08
21.37
22.58
22.63
21.55
19.59
17.15
14.72
12.68
11.17
10.08
9.07
7.83
6.16
4.10
1.84
-0.30
-2.16
-3.73
-5.18
-6.78
-8.73
-11.13
-13.91
-16.83
-19.49
-21.36
-21.92
-20.77
-17.75
-13.07
-7.24
-0.95
5.14
10.56
15.02
18.39
20.62
21.65
21.49
20.27
18.24
15.81
13.35
11.10
9.14
7.35
5.54
3.62
1.58
-0.39
-2.09
-3.32
-4.10
-4.63
-5.30
-6.51
-8.59
-11.62
-15.40
-19.47
-23.24
-26.04
-27.32
-26.72
-24.11
-19.69
-13.89
-7.37
-0.80
5.25
10.37
14.38
17.16
18.63
18.77
17.65
15.59
13.09
10.77
9.04
7.99
7.36
6.71
5.69
4.24
2.60
1.09
-0.03
-0.78
-1.37
-2.12
-3.25
-4.82
-6.84
-9.27
-12.14
-15.40
-18.82
-21.84
-23.75
-23.84
-21.71
-17.50
-11.76
-5.35
0.96
6.63
11.41
15.25
18.08
19.83
20.32
19.48
17.43
14.53
11.34
8.42
6.17
4.72
3.87
3.27
2.56
1.58
0.43
-0.66
-1.44
-1.86
-2.02
-2.21
-2.73
-3.78
-5.49
-7.85
-10.75
-14.02
-17.25
-19.84
-21.05
-20.19
-16.90
-11.36
-4.27
3.34
10.44
16.34
20.74
23.68
25.31
25.73
24.93
23.00
20.18
16.97
13.97
11.62
10.04
9.03
8.18
7.14
5.74
4.01
2.14
0.32
-1.31
-2.68
-3.80
-4.76
-5.71
-6.90
-8.60
-11.04
-14.29
-18.14
-21.98
-24.93
-26.06
-24.64
-20.50
-14.08
-6.34
1.63
8.85
14.78
19.24
22.31
24.10
24.71
24.25
22.91
21.00
18.86
16.73
14.75
12.90
11.14
9.44
7.83
6.31
4.89
3.47
2.01
0.51
-0.98
-2.40
-3.73
-5.09
-6.65
-8.62
-11.12
-14.15
-17.53
-20.93
-23.84
-25.63
-25.68
-23.63
-19.47
-13.65
-6.97
-0.32
5.59
10.34
13.91
16.46
18.15
19.00
18.91
17.78
15.74
13.11
10.43
8.17
6.63
5.78
5.32
4.86
4.09
2.90
1.34
-0.39
-2.11
-3.69
-5.07
-6.27
-7.37
-8.47
-9.73
-11.24
-13.08
-15.20
-17.34
-19.02
-19.56
-18.32
-14.91
-9.43
-2.51
4.84
11.55
16.84
20.37
22.23
22.69
22.01
20.36
17.81
14.54
10.97
7.68
5.24
4.06
4.13
5.06
6.19
6.82
6.48
5.05
2.73
-0.05
-2.83
-5.31
-7.40
-9.19
-10.83
-12.46
-14.15
-15.99
-18.04
-20.37
-22.89
-25.21
-26.67
-26.53
-24.23
-19.73
-13.56
-6.65
-0.02
5.63
10.07
13.44
15.99
17.89
19.01
19.20
18.35
16.60
14.27
11.85
9.71
8.03
6.82
5.90
5.07
4.22
3.24
2.15
0.99
-0.19
-1.31
-2.37
-3.37
-4.40
-5.58
-7.09
-9.12
-11.73
-14.76
-17.75
-19.98
-20.70
-19.37
-15.92
-10.84
-4.96
0.80
5.76
9.63
12.46
14.46
15.75
16.29
15.93
14.64
12.56
10.06
7.63
5.67
4.37
3.64
3.22
2.80
2.15
1.24
0.13
-0.94
-1.86
-2.63
-3.39
-4.39
-5.85
-7.86
-10.26
-12.82
-15.24
-17.31
-18.82
-19.56
-19.27
-17.71
-14.78
-10.70
-5.95
-1.09
3.44
7.46
11.02
14.19
16.87
18.70
19.29
18.39
16.11
12.91
9.44
6.28
3.81
2.14
1.18
0.72
0.51
0.32
-0.02
-0.58
-1.34
-2.20
-3.09
-3.98
-4.95
-6.18
-7.86
-10.14
-12.97
-16.04
-18.80
-20.52
-20.59
-18.65
-14.81
-9.59
-3.75
1.95
6.97
11.06
14.11
16.07
16.84
16.36
14.73
12.27
9.49
6.94
5.00
3.80
3.20
2.92
2.66
2.21
1.54
0.68
-0.26
-1.24
-2.28
-3.46
-4.91
-6.72
-8.99
-11.67
-14.62
-17.48
-19.77
-20.96
-20.60
-18.56
-15.02
-10.45
-5.41
-0.36
4.44
8.81
12.59
15.52
17.27
17.59
16.50
14.33
11.67
9.09
6.98
5.41
4.25
3.21
2.09
0.79
-0.63
-1.98
-3.04
-3.65
-3.87
-3.91
-4.15
-4.98
-6.61
-9.05
-12.04
-15.17
-17.88
-19.66
-20.06
-18.79
-15.76
-11.20
-5.60
0.32
5.88
10.57
14.16
16.70
18.32
19.13
19.18
18.49
17.14
15.32
13.31
11.38
9.70
8.30
7.10
5.96
4.74
3.37
1.83
0.17
-1.51
-3.12
-4.62
-6.06
-7.65
-9.66
-12.31
-15.61
-19.25
-22.63
-24.92
-25.44
-23.80
-20.04
-14.68
-8.46
-2.18
3.59
8.48
12.36
15.21
17.00
17.71
17.33
15.97
13.89
11.49
9.17
7.22
5.73
4.56
3.52
2.46
1.35
0.29
-0.62
-1.34
-1.96
-2.61
-3.42
-4.50
-5.93
-7.84
-10.41
-13.71
-17.59
-21.54
-24.79
-26.50
-26.08
-23.38
-18.77
-12.91
-6.58
-0.39
5.24
10.10
13.97
16.70
18.12
18.18
17.03
15.00
12.59
10.25
8.39
7.15
6.42
5.90
5.19
4.05
2.46
0.64
-0.98
-2.10
-2.65
-2.87
-3.25
-4.31
-6.34
-9.34
-12.97
-16.68
-19.82
-21.77
-22.05
-20.42
-16.97
-12.06
-6.29
-0.31
5.33
10.28
14.35
17.43
19.40
20.12
19.52
17.73
15.12
12.24
9.65
7.70
6.41
5.50
4.58
3.34
1.72
-0.11
-1.82
-3.19
-4.20
-5.07
-6.14
-7.71
-9.92
-12.74
-15.99
-19.42
-22.65
-25.21
-26.54
-26.06
-23.42
-18.66
-12.26
-5.00
2.25
8.79
14.25
18.42
21.26
22.69
22.67
21.30
18.93
16.12
13.41
11.15
9.39
7.92
6.44
4.78
3.00
1.26
-0.26
-1.50
-2.57
-3.63
-4.81
-6.21
-7.89
-9.93
-12.51
-15.72
-19.49
-23.40
-26.75
-28.68
-28.47
-25.78
-20.83
-14.31
-7.11
-0.10
6.17
11.46
15.78
19.20
21.71
23.29
23.93
23.74
22.94
21.73
20.26
18.52
16.38
13.75
10.61
7.07
3.36
-0.28
-3.60
-6.47
-8.76
-10.45
-11.57
-12.27
-12.85
-13.71
-15.23
-17.66
-20.87
-24.32
-27.16
-28.46
-27.53
-24.22
-18.86
-12.16
-4.86
2.41
9.28
15.46
20.72
24.76
27.29
28.19
27.57
25.80
23.45
21.05
18.93
17.17
15.61
13.99
12.14
9.99
7.68
5.37
3.18
1.13
-0.88
-2.99
-5.28
-7.79
-10.56
-13.64
-17.08
-20.78
-24.40
-27.34
-28.81
-28.10
-24.85
-19.21
-11.82
-3.66
4.30
11.25
16.75
20.65
23.02
24.06
24.01
23.09
21.52
19.47
17.14
14.72
12.43
10.51
9.06
8.08
7.40
6.77
5.97
4.85
3.39
1.62
-0.38
-2.54
-4.78
-7.03
-9.22
-11.33
-13.41
-15.62
-18.13
-21.03
-24.21
-27.27
-29.59
-30.40
-29.08
-25.29
-19.21
-11.48
-3.02
5.19
12.44
18.33
22.73
25.67
27.18
27.26
26.04
23.79
20.91
17.91
15.18
12.95
11.25
9.97
8.96
8.10
7.30
6.49
5.60
4.55
3.25
1.64
-0.29
-2.49
-4.84
-7.26
-9.74
-12.36
-15.27
-18.53
-21.93
-24.90
-26.65
-26.37
-23.61
-18.50
-11.74
-4.35
2.67
8.72
13.54
17.18
19.75
21.29
21.79
21.26
19.85
17.81
15.45
13.03
10.76
8.79
7.23
6.14
5.51
5.20
5.01
4.68
4.08
3.15
1.94
0.54
-1.04
-2.88
-5.06
-7.70
-10.84
-14.42
-18.22
-21.88
-24.83
-26.39
-25.99
-23.26
-18.28
-11.59
-4.10
3.23
9.62
14.72
18.52
21.16
22.74
23.19
22.44
20.57
17.90
15.02
12.52
10.71
9.52
8.61
7.58
6.26
4.73
3.24
2.05
1.24
0.68
0.13
-0.67
-1.93
-3.78
-6.30
-9.55
-13.51
-17.94
-22.31
-25.77
-27.47
-26.77
-23.55
-18.24
-11.65
-4.63
2.19
8.52
14.26
19.26
23.25
25.82
26.69
25.89
23.88
21.35
18.93
17.00
15.54
14.26
12.77
10.85
8.52
6.00
3.65
1.71
0.25
-0.85
-1.86
-3.13
-4.86
-7.16
-10.00
-13.30
-16.91
-20.65
-24.18
-27.03
-28.54
-28.11
-25.40
-20.59
-14.36
-7.67
-1.45
3.77
7.90
11.19
13.88
16.02
17.41
17.82
17.19
15.78
14.04
12.50
11.47
10.94
10.65
10.26
9.48
8.19
6.45
4.53
2.70
1.16
-0.06
-1.17
-2.49
-4.37
-6.96
-10.20
-13.85
-17.56
-20.94
-23.64
-25.26
-25.43
-23.82
-20.30
-15.11
-8.79
-2.10
4.21
9.66
14.02
17.28
19.42
20.38
20.00
18.28
15.43
11.93
8.46
5.59
3.64
2.54
1.96
1.43
0.64
-0.53
-1.99
-3.52
-4.91
-6.09
-7.09
-8.06
-9.18
-10.68
-12.79
-15.63
-19.11
-22.76
-25.79
-27.26
-26.40
-22.97
-17.33
-10.34
-2.98
3.96
10.02
15.04
18.92
21.50
22.61
22.17
20.40
17.83
15.17
13.00
11.66
11.03
10.71
10.19
9.13
7.41
5.22
2.93
0.85
-0.87
-2.30
-3.67
-5.26
-7.31
-9.95
-13.19
-16.87
-20.69
-24.09
-26.42
-27.03
-25.50
-21.78
-16.23
-9.54
-2.45
4.37
10.40
15.27
18.78
20.75
21.20
20.24
18.15
15.37
12.36
9.59
7.30
5.52
4.07
2.67
1.07
-0.76
-2.66
-4.34
-5.59
-6.43
-7.10
-8.00
-9.47
-11.68
-14.55
-17.80
-21.05
-23.89
-25.88
-26.55
-25.50
-22.47
-17.49
-10.96
-3.57
3.86
10.67
16.43
21.03
24.51
26.85
27.97
27.71
26.07
23.35
20.09
16.97
14.52
12.91
11.94
11.21
10.33
9.12
7.58
5.87
4.10
2.30
0.40
-1.69
-4.05
-6.75
-9.88
-13.50
-17.54
-21.70
-25.36
-27.74
-28.07
-25.97
-21.53
-15.36
-8.32
-1.29
5.08
10.40
14.51
17.35
18.97
19.47
19.01
17.85
16.32
14.69
13.18
11.90
10.83
9.87
8.86
7.62
6.06
4.19
2.17
0.19
-1.60
-3.15
-4.53
-5.90
-7.49
-9.51
-12.14
-15.53
-19.61
-24.00
-28.02
-30.72
-31.23
-28.99
-24.06
-17.05
-8.93
-0.74
6.69
12.78
17.25
20.01
21.11
20.66
18.95
16.36
13.33
10.38
7.94
6.32
5.68
5.91
6.72
7.70
8.42
8.56
7.95
6.56
4.41
1.62
-1.65
-5.21
-8.84
-12.40
-15.85
-19.23
-22.59
-25.78
-28.38
-29.77
-29.25
-26.39
-21.18
-14.10
-6.00
2.17
9.61
15.78
20.39
23.33
24.58
24.21
22.40
19.56
16.30
13.26
10.98
9.70
9.33
9.51
9.74
9.56
8.70
7.13
5.00
2.60
0.22
-1.88
-3.56
-4.81
-5.81
-6.85
-8.29
-10.39
-13.23
-16.50
-19.59
-21.65
-21.91
-19.91
-15.69
-9.75
-2.87
4.16
10.74
16.51
21.23
24.71
26.69
26.96
25.51
22.66
19.01
15.34
12.29
10.14
8.85
8.08
7.45
6.68
5.67
4.43
2.99
1.32
-0.63
-2.91
-5.45
-8.08
-10.60
-12.89
-15.03
-17.26
-19.84
-22.80
-25.77
-27.97
-28.42
-26.38
-21.67
-14.84
-6.91
0.94
7.86
13.50
17.94
21.40
23.98
25.55
25.88
24.88
22.66
19.68
16.52
13.67
11.40
9.68
8.34
7.14
5.90
4.60
3.27
1.98
0.71
-0.59
-2.03
-3.71
-5.67
-7.92
-10.43
-13.21
-16.26
-19.55
-22.88
-25.86
-27.89
-28.26
-26.46
-22.36
-16.30
-9.05
-1.59
5.23
10.90
15.27
18.50
20.76
22.16
22.61
21.99
20.31
17.79
14.87
12.09
9.84
8.25
7.10
6.09
4.92
3.55
2.13
0.93
0.15
-0.23
-0.45
-0.86
-1.74
-3.28
-5.50
-8.31
-11.59
-15.14
-18.70
-21.90
-24.22
-25.11
-24.16
-21.19
-16.45
-10.50
-4.08
2.19
7.92
13.04
17.56
21.47
24.53
26.31
26.42
24.71
21.42
17.17
12.72
8.64
5.21
2.33
-0.27
-2.71
-4.92
-6.53
-7.20
-6.81
-5.68
-4.39
-3.63
-3.85
-5.13
-7.22
-9.78
-12.50
-15.25
-17.90
-20.24
-21.85
-22.21
-20.88
-17.70
-12.91
-7.10
-1.02
4.65
9.41
13.00
15.33
16.38
16.26
15.12
13.28
11.10
9.00
7.28
6.12
5.49
5.26
5.19
4.98
4.41
3.29
1.64
-0.40
-2.54
-4.49
-6.10
-7.43
-8.69
-10.16
-12.08
-14.50
-17.28
-20.10
-22.50
-23.94
-23.88
-21.96
-18.15
-12.81
-6.62
-0.33
5.47
10.51
14.69
17.98
20.18
20.99
20.23
18.01
14.83
11.43
8.48
6.31
4.91
3.97
3.13
2.24
1.33
0.55
0.06
-0.16
-0.26
-0.48
-1.03
-2.06
-3.57
-5.53
-7.80
-10.20
-12.43
-14.14
-14.89
-14.34
-12.37
-9.14
-5.10
-0.77
3.44
7.24
10.52
13.14
14.92
15.62
15.20
13.81
11.91
10.04
8.59
7.70
7.23
6.84
6.25
5.35
4.18
2.86
1.55
0.35
-0.67
-1.50
-2.25
-3.24
-4.95
-7.87
-12.09
-17.18
-22.04
-25.30
-25.83
-23.28
-18.27
-12.18
-6.53
-2.29
0.45
2.42
4.60
7.57
11.07
14.05
15.15
13.25
8.01
0.14
-8.80
-16.67
-21.13
-20.26
-13.18
-0.72
14.18
27.03
33.01
28.85
14.31
-7.29
-30.00
-47.18
-53.80
-48.02
-31.50
-8.42
16.32
38.68
56.44
69.10
77.16
81.43
82.49
80.76
76.80
71.43
65.63
60.07
54.62
48.32
39.70
27.61
11.89
-6.31
-24.81
-41.08
-53.14
-60.18
-62.95
-63.52
-64.59
-68.52
-76.41
-87.60
-99.81
-109.96
-115.33
-114.70
-108.77
-100.02
-91.67
-86.67
-86.76
-91.97
-100.64
-109.76
-115.69
-115.07
-105.85
-88.00
-63.72
-36.75
-11.10
10.21
25.85
36.06
41.87
44.23
43.64
40.28
34.41
26.74
18.36
10.70
5.40
3.99
7.43
15.61
26.93
38.57
47.41
51.31
50.21
46.27
43.06
44.12
51.72
66.28
86.66
110.68
135.74
159.13
178.25
191.00
196.27
194.35
186.98
176.73
166.27
157.58
151.55
148.05
146.29
145.22
143.88
141.46
137.52
132.05
125.33
117.85
109.81
100.86
90.03
75.99
57.72
35.12
9.39
-17.15
-41.70
-61.93
-76.73
-86.62
-93.46
-99.68
-107.29
-117.15
-128.83
-141.13
-153.02
-164.26
-175.42
-187.34
-200.41
-214.10
-227.23
-238.60
-247.55
-254.17
-258.87
-261.81
-262.55
-260.27
-254.25
-244.38
-231.25
-215.94
-199.62
-183.28
-167.77
-153.92
-142.50
-133.99
-128.16
-123.98
-119.77
-113.80
-104.90
-92.80
-78.12
-61.78
-44.67
-27.28
-9.90
7.04
22.79
36.21
46.28
52.52
55.23
55.48
54.60
53.79
53.67
54.28
55.22
55.93
55.92
54.95
52.99
50.17
46.80
43.13
39.34
35.41
31.22
26.60
21.39
15.51
8.94
1.81
-5.49
-12.16
-17.06
-18.90
-16.72
-10.24
-0.04
12.57
26.01
38.86
50.09
59.14
65.67
69.48
70.47
68.84
65.10
60.12
54.87
50.15
46.46
43.95
42.49
41.94
42.11
42.86
43.98
45.17
46.01
46.12
45.16
42.85
39.06
33.79
27.16
19.50
11.23
2.99
-4.47
-10.25
-13.43
-13.33
-9.71
-2.98
5.81
15.26
24.05
31.32
36.84
40.92
44.05
46.63
48.69
50.03
50.37
49.55
47.70
45.23
42.67
40.54
39.11
38.36
38.00
37.64
36.97
35.82
34.19
32.10
29.55
26.43
22.66
18.31
13.63
8.99
4.67
0.67
-3.28
-7.56
-12.29
-17.11
-21.11
-23.16
-22.37
-18.47
-11.98
-3.94
4.48
12.44
19.57
25.84
31.27
35.64
38.49
39.35
38.08
35.02
30.96
26.86
23.44
21.03
19.56
18.73
18.20
17.76
17.28
16.68
15.87
14.77
13.28
11.39
9.12
6.53
3.71
0.73
-2.38
-5.59
-8.91
-12.29
-15.54
-18.28
-20.00
-20.15
-18.33
-14.26
-7.78
1.14
12.38
25.39
39.10
51.88
61.90
67.69
68.65
65.29
58.98
51.43
44.13
38.01
33.42
30.34
28.44
27.14
25.58
22.89
18.78
14.07
10.76
11.43
18.02
30.69
47.51
65.10
79.90
89.41
92.69
90.08
82.55
71.18
57.11
41.72
26.69
13.72
3.89
-2.77
-7.23
-10.91
-14.95
-19.82
-25.34
-31.07
-36.67
-42.06
-47.37
-52.67
-57.81
-62.43
-66.09
-68.40
-69.09
-68.01
-65.02
-59.96
-52.80
-43.80
-33.69
-23.54
-14.52
-7.48
-2.71
0.02
1.25
1.42
0.60
-1.45
-5.07
-10.26
-16.47
-22.64
-27.46
-29.84
-29.18
-25.52
-19.45
-11.82
-3.56
4.62
12.21
18.85
24.27
28.14
30.24
30.50
29.18
26.82
24.19
21.92
20.44
19.67
19.20
18.46
17.02
14.80
12.10
9.50
7.66
6.93
7.21
8.03
8.72
8.63
7.36
4.65
0.34
-5.66
-13.34
-22.35
-31.99
-41.17
-48.75
-53.76
-55.60
-54.03
-49.08
-41.06
-30.65
-19.05
-7.89
1.03
6.58
8.58
7.99
6.47
5.65
6.45
8.85
12.07
15.03
16.91
17.33
16.44
14.74
12.82
11.29
10.51
10.54
11.08
11.57
11.35
9.99
7.41
3.82
-0.33
-4.62
-8.74
-12.50
-15.85
-18.80
-21.44
-23.91
-26.36
-28.73
-30.73
-31.83
-31.39
-28.96
-24.47
-18.26
-10.95
-3.26
4.19
10.97
16.80
21.46
24.81
26.76
27.39
26.98
26.00
24.98
24.33
24.19
24.44
24.75
24.81
24.46
23.76
22.89
22.06
21.28
20.41
19.19
17.40
15.00
12.13
9.10
6.20
3.62
1.40
-0.61
-2.58
-4.81
-7.54
-10.93
-14.94
-19.18
-22.90
-25.12
-24.94
-21.85
-15.99
-8.19
0.34
8.40
15.09
20.03
23.22
24.86
25.22
24.59
23.31
21.81
20.51
19.71
19.45
19.52
19.47
18.95
17.81
16.16
14.32
12.63
11.32
10.42
9.79
9.20
8.45
7.41
6.04
4.35
2.32
-0.08
-2.85
-5.98
-9.42
-13.05
-16.74
-20.16
-22.82
-24.10
-23.42
-20.55
-15.68
-9.44
-2.70
3.81
9.65
14.74
19.18
22.96
25.89
27.61
27.81
26.37
23.47
19.55
15.16
10.86
7.17
4.50
3.14
3.12
4.17
5.74
7.09
7.54
6.62
4.18
0.39
-4.33
-9.48
-14.59
-19.30
-23.42
-26.90
-29.77
-32.09
-33.89
-35.06
-35.49
-35.02
-33.60
-31.27
-28.24
-24.75
-21.01
-17.19
-13.29
-9.26
-4.96
-0.35
4.51
9.33
13.65
16.91
18.65
18.65
17.05
14.40
11.46
9.03
7.66
7.46
8.13
9.03
9.44
8.86
7.13
4.46
1.29
-1.84
-4.54
-6.69
-8.43
-10.10
-12.07
-14.54
-17.41
-20.28
-22.53
-23.56
-22.99
-20.80
-17.35
-13.17
-8.83
-4.64
-0.48
4.30
10.76
19.93
32.19
46.75
61.50
73.53
80.13
79.88
73.25
62.39
50.14
38.88
29.63
22.08
15.13
7.83
-0.02
-7.76
-14.42
-19.31
-22.52
-24.78
-27.07
-30.02
-33.62
-37.28
-40.22
-41.94
-42.37
-41.82
-40.63
-39.02
-37.03
-34.64
-31.88
-28.86
-25.65
-22.16
-18.25
-13.82
-9.16
-4.98
-2.25
-1.79
-3.80
-7.73
-12.42
-16.48
-18.87
-19.24
-17.99
-15.93
-13.94
-12.55
-11.83
-11.58
-11.55
-11.73
-12.19
-13.06
-14.24
-15.34
-15.85
-15.39
-13.99
-12.10
-10.42
-9.50
-9.42
-9.72
-9.66
-8.57
-6.24
-3.04
0.27
2.86
4.18
4.12
2.96
1.21
-0.63
-2.07
-2.68
-2.04
0.16
3.89
8.56
13.07
16.16
17.02
15.94
14.37
14.46
18.05
25.70
36.27
47.43
56.52
61.63
62.09
58.36
51.49
42.55
32.43
21.90
11.77
2.89
-3.99
-8.56
-11.03
-12.05
-12.42
-12.90
-14.05
-16.22
-19.62
-24.26
-29.96
-36.34
-42.87
-48.94
-53.98
-57.61
-59.68
-60.42
-60.34
-60.06
-60.01
-60.20
-60.14
-59.09
-56.43
-52.00
-46.22
-39.91
-33.89
-28.69
-24.44
-21.07
-18.52
-16.87
-16.26
-16.62
-17.43
-17.82
-16.78
-13.65
-8.48
-2.11
4.14
8.97
11.66
12.23
11.30
9.60
7.59
5.29
2.45
-1.11
-5.23
-9.48
-13.31
-16.34
-18.51
-20.01
-21.09
-21.91
-22.43
-22.55
-22.18
-21.43
-20.51
-19.65
-18.96
-18.48
-18.22
-18.24
-18.62
-19.32
-20.05
-20.21
-19.05
-15.98
-10.90
-4.28
2.98
9.93
15.92
20.78
24.63
27.65
29.81
30.88
30.68
29.29
27.20
25.12
23.73
23.32
23.66
24.21
24.34
23.71
22.35
20.62
18.97
17.78
17.13
16.83
16.54
15.90
14.60
12.45
9.38
5.49
1.09
-3.21
-6.59
-8.23
-7.65
-4.93
-0.74
3.93
8.14
11.33
13.47
14.82
15.69
16.18
16.14
15.36
13.74
11.41
8.69
5.94
3.40
1.18
-0.74
-2.44
-3.95
-5.24
-6.23
-6.88
-7.24
-7.45
-7.85
-8.81
-10.74
-13.90
-18.31
-23.56
-28.87
-33.19
-35.45
-34.90
-31.30
-25.05
-17.07
-8.51
-0.38
6.68
12.42
16.90
20.17
22.16
22.72
21.78
19.55
16.59
13.67
11.42
10.16
9.69
9.57
9.30
8.69
7.89
7.21
6.83
6.55
5.85
4.12
0.99
-3.50
-8.91
-14.68
-20.33
-25.53
-30.00
-33.29
-34.78
-33.83
-30.14
-23.96
-16.12
-7.75
0.14
6.92
12.44
16.78
20.01
22.09
22.86
22.33
20.75
18.68
16.75
15.46
14.93
14.97
15.17
15.08
14.45
13.21
11.47
9.42
7.19
4.85
2.42
-0.10
-2.75
-5.54
-8.60
-12.01
-15.82
-19.82
-23.50
-26.12
-26.89
-25.25
-21.15
-15.09
-7.93
-0.63
6.10
11.89
16.70
20.65
23.85
26.31
27.94
28.67
28.52
27.69
26.46
25.18
24.09
23.28
22.66
22.03
21.20
20.04
18.53
16.76
14.81
12.70
10.39
7.83
4.97
1.89
-1.33
-4.65
-8.13
-11.88
-15.95
-20.15
-23.93
-26.50
-26.99
-24.84
-20.02
-13.15
-5.35
2.17
8.51
13.34
16.86
19.56
21.85
23.87
25.41
26.10
25.71
24.30
22.27
20.13
18.33
17.07
16.28
15.75
15.24
14.58
13.70
12.57
11.14
9.37
7.18
4.57
1.60
-1.60
-4.86
-8.07
-11.20
-14.32
-17.60
-21.23
-25.24
-29.35
-32.97
-35.25
-35.37
-32.87
-27.83
-20.84
-12.80
-4.60
3.14
10.06
16.01
20.89
24.53
26.71
27.32
26.49
24.65
22.50
20.75
19.97
20.35
21.74
23.73
25.83
27.61
28.74
29.00
28.18
26.14
22.91
18.70
13.91
9.05
4.49
0.39
-3.38
-7.13
-11.14
-15.54
-20.31
-25.24
-29.99
-34.11
-37.06
-38.27
-37.30
-33.99
-28.57
-21.66
-14.10
-6.76
-0.29
4.96
8.98
11.96
14.10
15.58
16.48
16.88
16.90
16.73
16.59
16.65
16.90
17.21
17.43
17.46
17.35
17.21
17.11
16.97
16.54
15.55
13.84
11.47
8.70
5.88
3.20
0.61
-2.16
-5.48
-9.58
-14.40
-19.47
-24.04
-27.25
-28.44
-27.32
-24.08
-19.28
-13.67
-7.97
-2.64
2.14
6.38
10.08
13.14
15.36
16.51
16.52
15.59
14.14
12.66
11.51
10.80
10.42
10.14
9.76
9.16
8.33
7.24
5.89
4.30
2.53
0.71
-1.03
-2.62
-4.11
-5.67
-7.50
-9.79
-12.60
-15.88
-19.43
-22.89
-25.74
-27.41
-27.34
-25.22
-21.06
-15.30
-8.62
-1.74
4.75
10.51
15.34
19.13
21.77
23.17
23.34
22.41
20.68
18.54
16.35
14.33
12.60
11.07
9.67
8.32
6.94
5.53
4.08
2.64
1.25
-0.06
-1.31
-2.53
-3.89
-5.52
-7.59
-10.21
-13.40
-17.05
-20.83
-24.24
-26.60
-27.25
-25.72
-21.94
-16.28
-9.49
-2.45
4.06
9.54
13.72
16.59
18.18
18.60
18.00
16.62
14.79
12.88
11.25
10.19
9.83
10.14
10.87
11.71
12.32
12.40
11.85
10.68
8.99
6.98
4.79
2.55
0.26
-2.10
-4.66
-7.51
-10.71
-14.15
-17.50
-20.33
-22.13
-22.43
-20.94
-17.66
-12.79
-6.82
-0.36
5.98
11.68
16.35
19.80
21.92
22.68
22.18
20.59
18.26
15.63
13.11
10.98
9.31
7.93
6.63
5.22
3.66
2.05
0.52
-0.79
-1.81
-2.58
-3.20
-3.90
-4.98
-6.81
-9.62
-13.44
-17.90
-22.31
-25.79
-27.56
-27.19
-24.67
-20.38
-14.94
-8.96
-2.96
2.63
7.41
11.06
13.30
14.02
13.30
11.49
9.07
6.52
4.20
2.32
0.81
-0.48
-1.73
-3.06
-4.49
-5.94
-7.30
-8.44
-9.32
-9.98
-10.60
-11.49
-13.00
-15.49
-19.05
-23.50
-28.17
-32.12
-34.34
-34.08
-31.09
-25.72
-18.78
-11.25
-3.92
2.70
8.35
12.90
16.17
17.99
18.27
17.17
15.18
12.88
10.80
9.19
8.00
7.00
5.91
4.55
2.90
1.05
-0.86
-2.70
-4.38
-5.94
-7.45
-9.13
-11.24
-13.98
-17.40
-21.29
-25.15
-28.29
-29.99
-29.68
-27.15
-22.57
-16.45
-9.43
-2.14
4.95
11.51
17.32
22.12
25.67
27.76
28.27
27.26
25.01
21.92
18.48
15.13
12.18
9.70
7.58
5.60
3.53
1.33
-0.88
-2.88
-4.49
-5.71
-6.81
-8.17
-10.26
-13.44
-17.90
-23.63
-30.29
-37.26
-43.56
-48.02
-49.59
-47.62
-42.20
-34.10
-24.64
-15.17
-6.74
0.12
5.39
9.36
12.37
14.66
16.31
17.31
17.70
17.52
16.94
16.12
15.20
14.26
13.29
12.26
11.13
9.89
8.51
6.98
5.23
3.20
0.88
-1.68
-4.39
-7.14
-9.96
-12.98
-16.44
-20.63
-25.67
-31.43
-37.38
-42.61
-46.00
-46.51
-43.48
-36.90
-27.46
-16.35
-4.98
5.45
14.16
20.91
25.79
29.07
31.01
31.81
31.64
30.70
29.34
27.91
26.76
26.08
25.86
25.97
26.19
26.38
26.42
26.29
25.96
25.40
24.56
23.35
21.66
19.44
16.70
13.58
10.25
6.90
3.61
0.38
-2.82
-5.99
-9.05
-11.89
-14.44
-16.82
-19.30
-22.30
-26.12
-30.88
-36.27
-41.58
-45.81
-47.86
-46.91
-42.65
-35.45
-26.21
-16.07
-6.05
3.21
11.43
18.58
24.64
29.46
32.82
34.56
34.75
33.73
32.05
30.30
28.94
28.16
27.94
28.10
28.41
28.67
28.72
28.43
27.71
26.50
24.83
22.77
20.49
18.07
15.57
12.91
10.02
6.84
3.43
-0.08
-3.53
-6.81
-9.88
-12.77
-15.59
-18.49
-21.67
-25.39
-29.73
-34.57
-39.34
-43.16
-44.98
-44.02
-40.02
-33.32
-24.84
-15.68
-6.78
1.27
8.27
14.22
19.20
23.18
26.04
27.72
28.29
28.04
27.37
26.68
26.27
26.21
26.41
26.66
26.78
26.67
26.28
25.63
24.69
23.41
21.69
19.49
16.84
13.92
10.99
8.27
5.89
3.80
1.80
-0.31
-2.69
-5.36
-8.24
-11.29
-14.51
-18.04
-22.01
-26.54
-31.53
-36.57
-41.03
-44.06
-44.87
-42.98
-38.29
-31.25
-22.68
-13.52
-4.61
3.46
10.34
15.88
19.98
22.65
23.96
24.16
23.63
22.84
22.15
21.73
21.58
21.52
21.41
21.14
20.69
20.10
19.40
18.61
17.78
16.89
15.91
14.73
13.15
11.00
8.17
4.79
1.15
-2.35
-5.44
-8.02
-10.21
-12.29
-14.57
-17.30
-20.57
-24.28
-28.14
-31.64
-34.16
-35.03
-33.74
-30.10
-24.32
-17.00
-8.98
-1.11
5.88
11.51
15.58
18.09
19.25
19.37
18.80
17.89
16.91
15.98
15.12
14.25
13.36
12.48
11.72
11.13
10.70
10.27
9.61
8.52
6.92
4.87
2.55
0.13
-2.28
-4.64
-6.98
-9.36
-11.84
-14.50
-17.47
-20.84
-24.70
-28.87
-32.90
-35.99
-37.19
-35.69
-31.17
-24.00
-15.12
-5.83
2.67
9.61
14.68
18.05
20.04
20.94
20.97
20.25
18.96
17.36
15.75
14.38
13.41
12.76
12.31
11.89
11.41
10.84
10.13
9.16
7.71
5.59
2.74
-0.69
-4.38
-7.92
-11.05
-13.72
-16.16
-18.81
-22.10
-26.23
-31.06
-35.94
-39.89
-41.84
-41.01
-37.16
-30.71
-22.56
-13.87
-5.62
1.55
7.38
11.96
15.44
17.93
19.47
19.99
19.50
18.09
16.09
13.90
11.90
10.35
9.26
8.43
7.66
6.74
5.61
4.26
2.72
0.95
-1.06
-3.35
-5.88
-8.66
-11.69
-15.11
-19.08
-23.70
-28.90
-34.27
-39.12
-42.53
-43.61
-41.77
-36.88
-29.45
-20.41
-10.94
-2.07
5.50
11.54
16.14
19.57
22.03
23.61
24.27
23.96
22.77
20.91
18.73
16.57
14.65
13.02
11.58
10.15
8.61
6.97
5.29
3.61
1.91
0.03
-2.25
-5.07
-8.51
-12.52
-17.04
-21.99
-27.29
-32.74
-37.91
-42.06
-44.33
-43.93
-40.51
-34.27
-26.00
-16.78
-7.69
0.55
7.61
13.47
18.26
22.09
24.94
26.76
27.58
27.48
26.64
25.32
23.70
22.00
20.40
19.05
18.00
17.15
16.29
15.18
13.67
11.74
9.52
7.14
4.71
2.18
-0.53
-3.51
-6.82
-10.45
-14.45
-18.86
-23.69
-28.75
-33.48
-37.05
-38.51
-37.10
-32.61
-25.44
-16.49
-6.93
2.22
10.29
16.92
22.07
25.78
28.14
29.18
29.05
27.98
26.33
24.45
22.59
20.86
19.19
17.50
15.76
14.04
12.50
11.27
10.35
9.58
8.69
7.35
5.31
2.48
-1.03
-4.99
-9.14
-13.33
-17.60
-22.05
-26.72
-31.41
-35.61
-38.50
-39.23
-37.17
-32.18
-24.67
-15.52
-5.78
3.59
11.93
18.92
24.48
28.61
31.31
32.54
32.36
30.98
28.82
26.38
24.07
22.10
20.46
18.99
17.54
16.07
14.68
13.50
12.61
11.92
11.16
9.97
8.06
5.27
1.70
-2.47
-7.06
-12.06
-17.64
-24.00
-31.21
-39.00
-46.67
-53.23
-57.56
-58.74
-56.25
-50.18
-41.12
-30.12
-18.39
-7.08
2.97
11.32
17.87
22.73
26.02
27.83
28.21
27.32
25.47
23.13
20.75
18.64
16.85
15.31
13.87
12.55
11.46
10.73
10.33
10.00
9.34
7.99
5.81
2.90
-0.44
-3.93
-7.43
-10.93
-14.51
-18.27
-22.30
-26.63
-31.18
-35.67
-39.48
-41.77
-41.67
-38.69
-32.91
-25.02
-16.06
-7.07
1.22
8.44
14.47
19.31
22.95
25.40
26.71
27.03
26.57
25.57
24.24
22.79
21.39
20.19
19.28
18.72
18.49
18.59
18.91
19.28
19.40
18.91
17.50
15.09
11.84
8.15
4.50
1.19
-1.67
-4.29
-6.99
-10.12
-13.91
-18.35
-23.23
-28.06
-32.14
-34.64
-34.84
-32.31
-27.10
-19.76
-11.20
-2.45
5.61
12.42
17.72
21.54
24.02
25.35
25.72
25.28
24.23
22.74
21.06
19.39
17.91
16.65
15.53
14.46
13.32
12.11
10.86
9.56
8.10
6.27
3.83
0.66
-3.10
-7.08
-10.82
-14.00
-16.63
-19.04
-21.65
-24.76
-28.20
-31.32
-33.17
-32.88
-30.01
-24.70
-17.60
-9.65
-1.74
5.42
11.43
16.08
19.28
21.01
21.32
20.38
18.46
15.93
13.20
10.65
8.59
7.20
6.53
6.47
6.84
7.40
7.88
8.03
7.64
6.57
4.81
2.47
-0.24
-3.08
-5.92
-8.78
-11.87
-15.50
-19.86
-24.88
-30.08
-34.67
-37.66
-38.24
-35.95
-30.88
-23.63
-15.15
-6.48
1.50
8.24
13.56
17.47
20.10
21.54
21.83
21.06
19.45
17.41
15.39
13.77
12.69
11.97
11.24
10.11
8.36
6.08
3.56
1.14
-0.96
-2.77
-4.51
-6.45
-8.82
-11.74
-15.21
-19.22
-23.65
-28.23
-32.39
-35.31
-36.15
-34.30
-29.70
-22.91
-14.90
-6.69
0.92
7.54
13.03
17.41
20.65
22.66
23.34
22.77
21.21
19.13
17.00
15.14
13.69
12.49
11.31
9.94
8.31
6.57
4.96
3.70
2.82
2.13
1.20
-0.47
-3.30
-7.51
-13.04
-19.62
-26.66
-33.40
-38.89
-42.21
-42.62
-39.78
-33.93
-25.82
-16.51
-7.13
1.41
8.52
13.93
17.61
19.67
20.28
19.74
18.36
16.53
14.56
12.74
11.19
9.94
8.91
7.94
6.82
5.38
3.52
1.30
-1.08
-3.37
-5.41
-7.20
-9.02
-11.24
-14.23
-18.10
-22.63
-27.17
-30.87
-32.84
-32.42
-29.43
-24.12
-17.17
-9.39
-1.57
5.76
12.28
17.79
22.09
24.92
26.06
25.50
23.51
20.67
17.69
15.16
13.41
12.40
11.85
11.45
10.96
10.32
9.57
8.80
8.00
7.06
5.83
4.13
1.87
-0.94
-4.25
-8.01
-12.19
-16.70
-21.27
-25.39
-28.34
-29.34
-27.85
-23.78
-17.49
-9.78
-1.59
6.19
12.89
18.13
21.74
23.73
24.23
23.48
21.87
19.85
17.90
16.42
15.53
15.10
14.76
14.04
12.61
10.42
7.70
4.89
2.39
0.50
-0.77
-1.63
-2.38
-3.37
-4.86
-7.02
-9.88
-13.37
-17.31
-21.35
-25.01
-27.61
-28.47
-27.07
-23.23
-17.32
-10.04
-2.37
4.80
10.90
15.70
19.28
21.83
23.48
24.26
24.13
23.11
21.34
19.13
16.83
14.72
12.92
11.36
9.85
8.24
6.51
4.78
3.23
2.05
1.27
0.78
0.28
-0.53
-1.95
-4.18
-7.28
-11.18
-15.61
-20.13
-24.11
-26.85
-27.71
-26.35
-22.82
-17.57
-11.30
-4.77
1.40
6.81
11.24
14.57
16.71
17.63
17.42
16.27
14.55
12.67
11.03
9.89
9.37
9.42
9.81
10.28
10.55
10.43
9.89
9.03
7.99
6.87
5.65
4.19
2.35
0.11
-2.44
-5.06
-7.57
-9.95
-12.23
-14.43
-16.31
-17.42
-17.18
-15.23
-11.61
-6.84
-1.69
3.08
7.04
10.02
12.07
13.26
13.54
12.89
11.33
9.07
6.52
4.17
2.43
1.47
1.21
1.33
1.49
1.40
0.94
0.11
-0.97
-2.20
-3.55
-4.97
-6.49
-8.08
-9.74
-11.55
-13.63
-16.12
-18.96
-21.86
-24.24
-25.43
-24.87
-22.31
-17.91
-12.19
-5.89
0.27
5.75
10.19
13.39
15.28
15.82
15.01
12.99
10.06
6.66
3.36
0.71
-0.94
-1.53
-1.23
-0.47
0.32
0.79
0.84
0.55
0.18
-0.06
-0.14
-0.23
-0.71
-1.99
-4.37
-7.88
-12.24
-16.90
-21.15
-24.18
-25.32
-24.12
-20.52
-14.95
-8.19
-1.20
5.10
10.11
13.53
15.36
15.78
15.06
13.51
11.46
9.31
7.40
5.99
5.10
4.56
4.07
3.33
2.14
0.54
-1.30
-3.09
-4.57
-5.61
-6.36
-7.10
-8.29
-10.30
-13.29
-17.03
-20.96
-24.19
-25.87
-25.34
-22.39
-17.34
-10.89
-3.94
2.72
8.51
13.17
16.53
18.50
18.98
17.99
15.76
12.75
9.57
6.80
4.78
3.47
2.58
1.64
0.33
-1.47
-3.65
-5.94
-8.13
-10.09
-11.91
-13.81
-16.05
-18.79
-22.06
-25.67
-29.24
-32.23
-34.07
-34.24
-32.42
-28.59
-23.07
-16.47
-9.45
-2.56
3.84
9.54
14.35
18.02
20.22
20.82
19.98
18.17
16.02
14.07
12.50
11.14
9.65
7.72
5.31
2.62
-0.01
-2.31
-4.20
-5.79
-7.36
-9.25
-11.83
-15.33
-19.82
-25.02
-30.30
-34.69
-37.20
-37.12
-34.25
-28.99
-22.16
-14.65
-7.19
-0.24
6.01
11.44
15.88
19.11
20.95
21.37
20.60
19.03
17.12
15.27
13.71
12.43
11.29
10.07
8.55
6.61
4.30
1.80
-0.70
-3.10
-5.43
-7.89
-10.77
-14.30
-18.61
-23.62
-29.01
-34.24
-38.54
-41.07
-41.11
-38.27
-32.63
-24.75
-15.56
-6.05
2.94
10.88
17.59
22.98
27.03
29.66
30.75
30.34
28.68
26.27
23.72
21.53
19.98
19.04
18.47
17.91
17.04
15.68
13.79
11.44
8.73
5.77
2.61
-0.66
-4.03
-7.53
-11.21
-15.21
-19.61
-24.39
-29.24
-33.51
-36.31
-36.74
-34.18
-28.55
-20.36
-10.62
-0.50
8.97
17.06
23.49
28.21
31.41
33.27
33.99
33.75
32.78
31.33
29.71
28.13
26.75
25.60
24.61
23.70
22.79
21.83
20.72
19.32
17.44
14.94
11.81
8.23
4.50
0.96
-2.20
-5.02
-7.77
-10.83
-14.58
-19.14
-24.27
-29.34
-33.45
-35.67
-35.33
-32.22
-26.68
-19.43
-11.40
-3.41
3.97
10.41
15.77
19.95
22.82
24.29
24.41
23.46
21.91
20.30
19.03
18.24
17.81
17.45
16.86
15.86
14.48
12.85
11.11
9.36
7.56
5.61
3.39
0.87
-1.91
-4.79
-7.58
-10.15
-12.44
-14.61
-16.97
-19.85
-23.48
-27.79
-32.30
-36.15
-38.36
-38.06
-34.79
-28.73
-20.58
-11.44
-2.46
5.43
11.68
16.18
19.11
20.83
21.73
22.06
21.95
21.41
20.42
19.04
17.47
16.07
15.24
15.24
16.06
17.34
18.53
19.05
18.57
17.10
14.91
12.24
9.34
6.48
4.28
3.75
6.14
12.42
22.82
36.76
53.40
72.35
93.90
118.53
145.77
173.32
197.08
212.45
216.14
207.50
188.79
163.96
137.15
111.40
88.35
68.68
52.78
41.05
33.85
31.07
31.88
34.89
38.52
41.37
42.61
42.11
40.36
38.22
36.56
35.87
36.06
36.40
35.83
33.37
28.49
21.33
12.62
3.34
-5.51
-13.15
-19.02
-22.93
-25.07
-26.09
-27.04
-29.01
-32.60
-37.49
-42.43
-45.69
-45.89
-42.68
-36.95
-30.50
-25.16
-22.06
-21.22
-21.79
-22.63
-22.79
-21.97
-20.50
-19.29
-19.84
-24.24
-34.83
-53.38
-79.98
-112.27
-145.78
-175.70
-199.38
-217.99
-236.16
-259.24
-289.55
-324.00
-354.56
-371.66
-368.55
-344.26
-303.13
-252.22
-197.99
-144.63
-94.40
-48.77
-8.85
25.55
56.97
90.04
129.29
175.93
225.91
270.77
301.34
311.58
301.01
273.92
236.44
193.26
146.15
94.83
39.15
-18.76
-74.02
-119.87
-149.77
-159.35
-147.71
-117.38
-73.51
-22.47
29.66
77.89
118.59
149.30
168.50
175.63
171.33
157.59
137.51
114.63
91.96
71.35
53.29
37.21
22.47
8.88
-2.69
-10.60
-12.99
-8.66
2.36
18.61
37.58
56.38
72.60
84.95
93.59
99.99
106.37
115.00
127.40
143.86
163.45
184.43
205.08
224.26
241.73
257.87
273.05
287.04
298.69
306.21
307.70
301.84
288.30
267.82
241.82
212.00
179.94
146.89
113.81
81.49
50.61
21.75
-4.73
-28.87
-51.20
-72.67
-94.54
-117.89
-143.22
-169.89
-196.13
-219.32
-236.76
-246.55
-248.28
-243.03
-232.95
-220.41
-207.27
-194.54
-182.45
-170.75
-158.94
-146.44
-132.51
-116.44
-97.84
-77.05
-55.30
-34.57
-16.99
-4.25
2.83
4.33
0.89
-6.68
-17.74
-31.79
-48.38
-67.00
-87.07
-108.05
-129.43
-150.78
-171.43
-190.40
-206.44
-218.32
-225.27
-227.31
-225.27
-220.61
-214.86
-209.23
-204.25
-199.73
-194.99
-189.17
-181.59
-171.91
-160.23
-146.94
-132.59
-117.74
-102.94
-88.63
-75.21
-63.00
-52.22
-43.00
-35.34
-29.12
-24.17
-20.27
-17.14
-14.50
-12.08
-9.69
-7.29
-4.93
-2.69
-0.62
1.31
3.31
5.54
8.08
10.78
13.29
15.15
15.94
15.38
13.39
10.13
5.94
1.34
-3.04
-6.54
-8.70
-9.31
-8.59
-7.09
-5.47
-4.32
-3.92
-4.24
-5.05
-6.05
-7.06
-8.08
-9.18
-10.42
-11.76
-13.01
-13.89
-14.19
-13.81
-12.81
-11.35
-9.62
-7.75
-5.82
-3.93
-2.18
-0.71
0.42
1.19
1.71
2.10
2.50
2.91
3.33
3.71
4.05
4.41
4.90
5.60
6.53
7.63
8.76
9.77
10.60
11.15
11.41
11.35
10.97
10.32
9.49
8.65
7.93
7.47
7.29
7.39
7.81
8.58
9.74
11.21
12.75
13.96
14.52
14.26
13.35
12.16
11.12
10.49
10.25
10.25
10.28
10.28
10.22
10.19
10.19
10.19
10.20
10.27
10.57
11.23
12.23
13.39
14.33
14.76
14.53
13.78
12.85
12.14
11.92
12.20
12.72
13.10
13.03
12.36
11.21
9.86
8.62
7.66
7.02
6.58
6.25
5.97
5.76
5.72
5.91
6.37
7.04
7.83
8.55
9.03
9.12
8.74
7.97
7.02
6.13
5.51
5.25
5.31
5.54
5.79
5.96
6.01
5.93
5.71
5.35
4.84
4.20
3.51
2.89
2.44
2.24
2.26
2.40
2.52
2.49
2.30
1.99
1.67
1.42
1.30
1.32
1.47
1.79
2.26
2.83
3.35
3.67
3.62
3.22
2.60
2.01
1.65
1.55
1.57
1.53
1.31
0.89
0.45
0.21
0.30
0.77
1.44
2.17
2.75
3.19
3.52
3.88
4.40
5.10
5.97
6.83
7.57
8.06
8.34
8.53
8.82
9.42
10.38
11.56
12.70
13.50
13.79
13.60
13.12
12.57
12.08
11.65
11.18
10.52
9.65
8.62
7.55
6.62
5.97
5.69
5.77
6.11
6.52
6.83
6.96
6.98
7.02
7.24
7.68
8.22
8.73
9.06
9.15
9.03
8.78
8.43
8.00
7.49
6.86
6.09
5.17
4.10
2.97
1.98
1.34
1.24
1.70
2.56
3.56
4.40
4.88
4.93
4.64
4.13
3.56
3.06
2.73
2.58
2.57
2.56
2.38
1.97
1.34
0.66
0.13
-0.10
0.01
0.43
1.02
1.66
2.18
2.45
2.34
1.80
0.87
-0.20
-1.14
-1.73
-1.92
-1.85
-1.79
-2.04
-2.73
-3.83
-5.14
-6.39
-7.31
-7.74
-7.62
-7.00
-6.04
-4.93
-3.86
-2.98
-2.36
-2.04
-2.00
-2.13
-2.25
-2.16
-1.70
-0.82
0.31
1.36
1.98
1.94
1.24
0.13
-1.04
-1.97
-2.51
-2.60
-2.27
-1.51
-0.24
1.51
3.61
5.71
7.40
8.37
8.50
7.98
7.13
6.33
5.78
5.44
5.18
4.82
4.26
3.52
2.67
1.79
0.91
0.04
-0.79
-1.51
-2.02
-2.23
-2.14
-1.84
-1.43
-1.03
-0.63
-0.21
0.28
0.78
1.20
1.38
1.25
0.84
0.33
-0.02
-0.00
0.48
1.30
2.20
2.93
3.29
3.20
2.73
2.00
1.15
0.35
-0.26
-0.56
-0.47
-0.01
0.66
1.35
1.85
2.05
2.02
1.94
2.03
2.48
3.38
4.60
5.97
7.26
8.30
9.06
9.62
10.07
10.43
10.61
10.46
9.83
8.67
7.09
5.31
3.58
2.08
0.88
-0.03
-0.70
-1.23
-1.72
-2.27
-2.94
-3.76
-4.64
-5.45
-6.05
-6.39
-6.51
-6.54
-6.55
-6.56
-6.52
-6.34
-5.98
-5.42
-4.74
-3.96
-3.07
-2.04
-0.86
0.40
1.60
2.60
3.33
3.78
4.01
4.08
4.04
3.89
3.65
3.40
3.21
3.18
3.32
3.60
3.92
4.15
4.21
4.08
3.85
3.63
3.53
3.62
3.93
4.41
4.99
5.52
5.89
5.98
5.78
5.39
4.97
4.69
4.67
4.91
5.33
5.84
6.38
6.91
7.37
7.64
7.53
6.96
6.01
4.90
3.90
3.16
2.60
1.92
0.77
-1.04
-3.41
-5.98
-8.23
-9.73
-10.30
-10.05
-9.29
-8.41
-7.71
-7.37
-7.43
-7.82
-8.49
-9.41
-10.58
-11.94
-13.33
-14.46
-14.99
-14.73
-13.72
-12.28
-10.86
-9.81
-9.20
-8.80
-8.23
-7.16
-5.55
-3.64
-1.80
-0.37
0.53
0.98
1.24
1.52
1.99
2.61
3.29
3.90
4.36
4.70
5.04
5.50
6.11
6.74
7.16
7.15
6.60
5.61
4.47
3.44
2.68
2.18
1.82
1.46
1.10
0.82
0.74
0.90
1.17
1.35
1.21
0.74
0.09
-0.52
-0.86
-0.96
-0.93
-0.96
-1.12
-1.34
-1.46
-1.39
-1.14
-0.87
-0.70
-0.70
-0.80
-0.88
-0.85
-0.71
-0.47
-0.20
0.11
0.48
0.93
1.47
2.06
2.69
3.33
3.96
4.53
4.95
5.15
5.07
4.77
4.35
3.93
3.59
3.46
3.62
4.16
5.13
6.49
8.11
9.76
11.16
12.05
12.32
12.02
11.33
10.50
9.71
9.02
8.43
7.92
7.48
7.14
6.93
6.84
6.81
6.77
6.66
6.47
6.30
6.27
6.54
7.21
8.28
9.60
10.93
12.03
12.76
13.15
13.37
13.59
13.85
14.03
14.01
13.76
13.52
13.65
14.45
15.96
17.95
20.00
21.75
23.01
23.85
24.40
24.78
24.96
24.84
24.28
23.26
21.94
20.61
19.51
18.73
18.12
17.43
16.43
15.17
13.96
13.21
13.29
14.27
15.89
17.66
19.13
20.01
20.26
20.01
19.45
18.72
17.88
16.92
15.84
14.60
13.17
11.54
9.70
7.63
5.37
3.02
0.65
-1.61
-3.72
-5.71
-7.67
-9.79
-12.20
-14.89
-17.72
-20.38
-22.47
-23.72
-24.04
-23.57
-22.60
-21.46
-20.40
-19.57
-18.99
-18.70
-18.71
-19.05
-19.69
-20.49
-21.24
-21.71
-21.82
-21.63
-21.29
-21.00
-20.79
-20.59
-20.22
-19.52
-18.47
-17.15
-15.72
-14.34
-13.11
-12.04
-11.12
-10.34
-9.68
-9.08
-8.51
-7.93
-7.37
-6.90
-6.65
-6.66
-6.92
-7.33
-7.70
-7.85
-7.70
-7.21
-6.51
-5.77
-5.16
-4.73
-4.38
-3.92
-3.21
-2.25
-1.24
-0.46
-0.13
-0.26
-0.67
-1.05
-1.12
-0.76
-0.01
0.94
1.92
2.77
3.39
3.73
3.79
3.64
3.34
2.93
2.39
1.67
0.73
-0.41
-1.66
-2.83
-3.80
-4.50
-4.95
-5.23
-5.45
-5.63
-5.73
-5.69
-5.45
-5.02
-4.48
-3.95
-3.43
-2.86
-2.07
-0.92
0.58
2.27
3.77
4.70
4.83
4.24
3.19
2.08
1.22
0.72
0.46
0.25
-0.09
-0.62
-1.22
-1.74
-1.98
-1.90
-1.55
-1.13
-0.88
-0.96
-1.44
-2.20
-3.08
-3.85
-4.36
-4.60
-4.60
-4.51
-4.36
-4.18
-3.90
-3.45
-2.79
-1.99
-1.18
-0.48
0.01
0.26
0.28
0.06
-0.39
-1.08
-1.99
-3.08
-4.25
-5.34
-6.17
-6.55
-6.39
-5.77
-4.89
-4.06
-3.56
-3.53
-3.89
-4.37
-4.69
-4.69
-4.36
-3.83
-3.27
-2.74
-2.33
-2.06
-2.01
-2.21
-2.59
-2.90
-2.80
-1.97
-0.30
1.96
4.34
6.29
7.42
7.64
7.17
6.36
5.55
4.92
4.53
4.36
4.36
4.58
5.04
5.66
6.27
6.64
6.61
6.25
5.81
5.61
5.86
6.54
7.34
7.90
7.96
7.54
6.85
6.17
5.67
5.32
4.98
4.58
4.19
4.00
4.20
4.84
5.69
6.32
6.31
5.42
3.71
1.53
-0.71
-2.59
-3.94
-4.71
-5.03
-5.03
-4.88
-4.74
-4.73
-4.88
-5.16
-5.41
-5.53
-5.50
-5.40
-5.37
-5.46
-5.63
-5.72
-5.58
-5.20
-4.68
-4.17
-3.76
-3.40
-2.99
-2.45
-1.78
-1.11
-0.55
-0.19
0.00
0.11
0.22
0.42
0.71
1.06
1.43
1.80
2.20
2.64
3.13
3.63
4.08
4.44
4.71
4.93
5.17
5.42
5.64
5.71
5.57
5.20
4.69
4.17
3.71
3.33
3.00
2.67
2.38
2.17
2.19
2.49
3.05
3.74
4.38
4.80
4.90
4.65
4.05
3.15
1.97
0.59
-0.90
-2.27
-3.29
-3.71
-3.43
-2.52
-1.19
0.25
1.47
2.28
2.63
2.62
2.42
2.28
2.33
2.64
3.10
3.49
3.53
3.03
1.97
0.54
-0.90
-1.99
-2.51
-2.48
-2.06
-1.47
-0.86
-0.25
0.37
0.98
1.47
1.70
1.61
1.28
0.88
0.55
0.29
-0.04
-0.67
-1.66
-2.87
-3.97
-4.60
-4.58
-4.00
-3.13
-2.30
-1.72
-1.39
-1.22
-1.08
-0.96
-0.95
-1.15
-1.54
-2.01
-2.38
-2.50
-2.35
-2.00
-1.51
-0.85
0.07
1.36
2.92
4.49
5.77
6.51
6.72
6.61
6.44
6.41
6.52
6.63
6.60
6.37
6.00
5.55
5.08
4.61
4.15
3.72
3.41
3.27
3.35
3.56
3.82
3.98
3.98
3.81
3.55
3.33
3.24
3.26
3.28
3.12
2.63
1.78
0.71
-0.33
-1.07
-1.29
-0.97
-0.23
0.65
1.43
1.88
1.90
1.51
0.82
0.01
-0.80
-1.48
-1.98
-2.27
-2.35
-2.29
-2.19
-2.17
-2.33
-2.66
-3.04
-3.31
-3.32
-3.08
-2.70
-2.37
-2.24
-2.36
-2.66
-2.97
-3.17
-3.19
-3.08
-2.97
-3.01
-3.31
-3.87
-4.56
-5.16
-5.44
-5.30
-4.74
-3.89
-2.89
-1.86
-0.85
0.11
1.00
1.75
2.31
2.68
2.93
3.08
3.14
3.05
2.77
2.32
1.84
1.53
1.55
1.86
2.29
2.60
2.60
2.29
1.84
1.48
1.39
1.59
2.00
2.46
2.83
3.03
3.03
2.83
2.45
1.88
1.18
0.40
-0.29
-0.75
-0.81
-0.38
0.53
1.80
3.18
4.39
5.14
5.27
4.81
3.93
2.92
2.05
1.51
1.32
1.35
1.44
1.50
1.50
1.49
1.49
1.46
1.25
0.74
-0.08
-1.07
-1.99
-2.61
-2.86
-2.83
-2.73
-2.72
-2.84
-2.96
-2.90
-2.58
-2.08
-1.58
-1.28
-1.25
-1.40
-1.48
-1.29
-0.73
0.04
0.82
1.40
1.74
1.93
2.14
2.43
2.73
2.84
2.61
2.00
1.17
0.36
-0.17
-0.33
-0.18
0.09
0.27
0.21
-0.12
-0.69
-1.36
-2.03
-2.65
-3.19
-3.63
-3.95
-4.19
-4.36
-4.56
-4.83
-5.15
-5.40
-5.36
-4.80
-3.63
-1.97
-0.14
1.41
2.29
2.30
1.52
0.32
-0.81
-1.45
-1.37
-0.63
0.48
1.58
2.32
2.49
2.07
1.20
0.09
-1.01
-1.90
-2.48
-2.74
-2.76
-2.68
-2.57
-2.43
-2.19
-1.77
-1.19
-0.56
-0.04
0.28
0.41
0.46
0.54
0.67
0.78
0.73
0.48
0.05
-0.42
-0.74
-0.83
-0.74
-0.60
-0.59
-0.84
-1.35
-2.04
-2.72
-3.23
-3.43
-3.26
-2.77
-2.10
-1.40
-0.75
-0.18
0.36
0.95
1.58
2.20
2.72
3.02
3.09
2.94
2.65
2.27
1.84
1.36
0.88
0.44
0.07
-0.18
-0.29
-0.29
-0.14
0.17
0.64
1.22
1.78
2.22
2.47
2.56
2.58
2.60
2.64
2.61
2.42
2.04
1.49
0.94
0.55
0.37
0.38
0.51
0.71
0.94
1.19
1.39
1.41
1.18
0.68
0.07
-0.41
-0.62
-0.55
-0.39
-0.34
-0.51
-0.80
-1.02
-0.94
-0.51
0.18
0.96
1.72
2.40
3.04
3.68
4.31
4.93
5.50
6.07
6.70
7.40
8.17
8.94
9.65
10.25
10.73
11.12
11.45
11.84
12.41
13.22
14.24
15.35
16.35
17.15
17.78
18.38
19.11
19.97
20.73
21.07
20.65
19.36
17.32
14.87
12.43
10.33
8.78
7.86
7.55
7.79
8.45
9.32
10.02
10.16
9.34
7.50
4.95
2.36
0.44
-0.32
0.05
1.07
2.04
2.36
1.67
-0.13
-3.00
-6.87
-11.62
-16.99
-22.46
-27.34
-31.00
-33.05
-33.53
-32.90
-31.81
-30.92
-30.70
-31.35
-32.77
-34.63
-36.43
-37.72
-38.19
-37.79
-36.68
-35.08
-33.21
-31.15
-28.98
-26.76
-24.68
-22.87
-21.37
-20.05
-18.61
-16.80
-14.52
-11.92
-9.29
-6.94
-5.02
-3.54
-2.42
-1.61
-1.09
-0.89
-1.00
-1.32
-1.68
-1.84
-1.58
-0.79
0.50
2.09
3.71
5.05
5.90
6.23
6.09
5.64
5.00
4.30
3.56
2.83
2.17
1.61
1.23
1.12
1.35
1.90
2.73
3.67
4.55
5.19
5.52
5.57
5.47
5.40
5.45
5.64
5.84
5.91
5.75
5.36
4.87
4.39
4.05
3.78
3.54
3.28
3.08
3.13
3.59
4.45
5.49
6.36
6.84
6.85
6.62
6.46
6.61
7.08
7.65
7.98
7.89
7.35
6.60
5.91
5.46
5.25
5.11
4.84
4.40
3.88
3.46
3.27
3.26
3.21
2.93
2.31
1.46
0.62
0.01
-0.30
-0.35
-0.29
-0.24
-0.22
-0.20
-0.12
0.11
0.58
1.39
2.61
4.18
5.85
7.27
8.08
8.13
7.55
6.67
5.85
5.28
4.92
4.56
4.00
3.19
2.25
1.34
0.62
0.12
-0.25
-0.60
-1.05
-1.62
-2.26
-2.84
-3.17
-3.10
-2.60
-1.82
-1.02
-0.51
-0.47
-0.86
-1.48
-2.09
-2.57
-2.86
-2.95
-2.75
-2.10
-0.88
0.81
2.63
4.13
4.99
5.12
4.74
4.23
3.84
3.60
3.32
2.82
2.05
1.15
0.38
-0.07
-0.15
-0.00
0.14
0.13
-0.06
-0.29
-0.33
-0.03
0.61
1.44
2.17
2.55
2.48
2.05
1.50
1.10
1.02
1.24
1.60
1.89
1.95
1.72
1.23
0.62
0.03
-0.37
-0.48
-0.25
0.26
0.86
1.33
1.45
1.13
0.46
-0.37
-1.14
-1.65
-1.88
-1.86
-1.70
-1.48
-1.22
-0.90
-0.50
-0.06
0.35
0.65
0.86
1.03
1.24
1.55
1.95
2.34
2.61
2.65
2.45
2.06
1.60
1.17
0.85
0.63
0.46
0.28
0.08
-0.09
-0.14
0.04
0.46
1.09
1.77
2.36
2.77
2.98
3.02
2.86
2.46
1.74
0.73
-0.48
-1.66
-2.57
-3.02
-2.98
-2.56
-1.97
-1.40
-0.98
-0.72
-0.64
-0.73
-1.03
-1.52
-2.14
-2.74
-3.16
-3.29
-3.09
-2.61
-1.98
-1.31
-0.73
-0.29
-0.00
0.18
0.26
0.24
0.10
-0.18
-0.51
-0.74
-0.63
-0.05
0.94
2.04
2.83
3.04
2.65
1.95
1.37
1.27
1.71
2.47
3.16
3.48
3.33
2.85
2.31
1.98
1.92
2.06
2.18
2.07
1.66
1.05
0.49
0.24
0.38
0.76
1.08
1.05
0.59
-0.15
-0.85
-1.26
-1.31
-1.20
-1.26
-1.68
-2.35
-2.95
-3.05
-2.38
-1.00
0.72
2.32
3.43
3.92
3.87
3.54
3.14
2.78
2.41
2.00
1.53
1.03
0.54
0.06
-0.48
-1.17
-1.96
-2.63
-2.90
-2.53
-1.55
-0.26
0.87
1.45
1.33
0.68
-0.20
-0.95
-1.39
-1.44
-1.12
-0.43
0.62
1.92
3.23
4.28
4.79
4.71
4.19
3.55
3.15
3.18
3.61
4.24
4.77
4.92
4.60
3.87
2.91
1.92
1.08
0.46
0.06
-0.18
-0.39
-0.68
-1.18
-1.93
-2.88
-3.83
-4.59
-4.96
-4.96
-4.72
-4.44
-4.32
-4.38
-4.52
-4.58
-4.45
-4.09
-3.57
-3.03
-2.59
-2.30
-2.16
-2.00
-1.69
-1.05
-0.08
1.09
2.26
3.22
3.90
4.27
4.46
4.48
4.32
3.84
2.93
1.64
0.18
-1.15
-2.05
-2.44
-2.44
-2.30
-2.24
-2.32
-2.38
-2.22
-1.77
-1.15
-0.63
-0.48
-0.75
-1.20
-1.52
-1.43
-0.98
-0.42
-0.07
-0.16
-0.70
-1.44
-2.13
-2.52
-2.46
-1.92
-0.95
0.32
1.75
3.14
4.37
5.38
6.16
6.71
7.00
6.93
6.43
5.52
4.32
3.08
2.03
1.31
0.90
0.65
0.37
-0.02
-0.53
-1.05
-1.43
-1.62
-1.59
-1.40
-1.17
-1.01
-1.03
-1.29
-1.81
-2.54
-3.34
-4.02
-4.38
-4.33
-3.89
-3.26
-2.65
-2.14
-1.65
-1.02
-0.13
1.01
2.18
3.16
3.75
3.99
4.05
4.14
4.32
4.45
4.33
3.80
2.93
1.96
1.21
0.80
0.66
0.61
0.43
0.14
-0.14
-0.23
-0.07
0.19
0.30
0.04
-0.60
-1.42
-2.10
-2.36
-2.14
-1.60
-1.01
-0.69
-0.83
-1.44
-2.42
-3.47
-4.27
-4.50
-3.99
-2.79
-1.06
0.89
2.74
4.23
5.21
5.60
5.41
4.74
3.77
2.70
1.76
1.10
0.83
0.92
1.27
1.75
2.18
2.39
2.23
1.65
0.72
-0.37
-1.39
-2.14
-2.58
-2.79
-2.91
-3.04
-3.15
-3.16
-2.92
-2.43
-1.76
-1.06
-0.47
-0.04
0.25
0.48
0.67
0.91
1.19
1.55
1.99
2.48
2.96
3.28
3.31
2.88
1.93
0.50
-1.20
-2.81
-3.91
-4.18
-3.52
-2.12
-0.45
1.06
2.06
2.49
2.47
2.20
1.89
1.64
1.48
1.42
1.49
1.70
2.04
2.45
2.84
3.10
3.12
2.88
2.38
1.71
1.02
0.51
0.32
0.55
1.10
1.78
2.39
2.75
2.87
2.82
2.73
2.60
2.30
1.64
0.51
-0.96
-2.45
-3.60
-4.18
-4.20
-3.87
-3.44
-3.09
-2.85
-2.69
-2.63
-2.73
-3.04
-3.53
-4.07
-4.51
-4.72
-4.70
-4.53
-4.31
-4.07
-3.79
-3.44
-2.99
-2.43
-1.67
-0.70
0.48
1.79
3.08
4.13
4.83
5.09
4.92
4.40
3.66
2.87
2.20
1.79
1.62
1.52
1.21
0.47
-0.72
-2.15
-3.43
-4.26
-4.54
-4.37
-3.96
-3.50
-3.12
-2.92
-3.01
-3.47
-4.31
-5.40
-6.44
-7.14
-7.29
-6.94
-6.31
-5.73
-5.39
-5.32
-5.36
-5.30
-4.96
-4.28
-3.38
-2.42
-1.61
-1.14
-1.06
-1.30
-1.70
-2.07
-2.26
-2.21
-1.97
-1.62
-1.31
-1.11
-1.04
-1.08
-1.13
-1.13
-0.96
-0.60
-0.16
0.23
0.45
0.44
0.28
0.08
-0.09
-0.25
-0.48
-0.87
-1.37
-1.88
-2.29
-2.56
-2.76
-2.97
-3.22
-3.41
-3.43
-3.22
-2.85
-2.47
-2.20
-2.01
-1.79
-1.42
-0.92
-0.42
-0.11
-0.08
-0.24
-0.43
-0.44
-0.23
0.16
0.61
1.02
1.38
1.66
1.86
1.94
1.90
1.79
1.77
1.94
2.32
2.75
3.06
3.06
2.68
2.03
1.21
0.36
-0.49
-1.30
-1.97
-2.35
-2.19
-1.39
0.01
1.72
3.36
4.55
5.06
4.89
4.19
3.24
2.27
1.44
0.73
0.07
-0.63
-1.41
-2.15
-2.76
-3.09
-3.11
-2.85
-2.45
-2.02
-1.68
-1.49
-1.42
-1.39
-1.24
-0.88
-0.23
0.68
1.71
2.66
3.33
3.61
3.55
3.32
3.14
3.19
3.54
4.18
5.00
5.82
6.49
6.80
6.65
6.03
5.05
3.98
3.08
2.59
2.53
2.82
3.24
3.61
3.84
3.95
4.09
4.37
4.93
5.77
6.82
7.96
8.98
9.70
9.93
9.54
8.45
6.74
4.64
2.50
0.75
-0.24
-0.35
0.25
1.19
1.97
2.29
2.04
1.36
0.54
-0.18
-0.62
-0.73
-0.61
-0.44
-0.34
-0.42
-0.67
-1.04
-1.42
-1.77
-2.06
-2.26
-2.31
-2.11
-1.56
-0.71
0.28
1.16
1.75
1.95
1.86
1.63
1.46
1.38
1.42
1.51
1.60
1.60
1.41
0.91
0.03
-1.13
-2.30
-3.05
-3.01
-2.07
-0.47
1.26
2.61
3.26
3.28
2.98
2.74
2.76
2.94
3.02
2.72
1.96
0.88
-0.21
-1.02
-1.43
-1.48
-1.36
-1.24
-1.28
-1.53
-1.96
-2.50
-2.98
-3.25
-3.20
-2.81
-2.19
-1.49
-0.91
-0.55
-0.47
-0.66
-1.04
-1.54
-2.00
-2.25
-2.05
-1.26
0.11
1.82
3.46
4.59
4.93
4.44
3.27
1.73
0.08
-1.49
-2.83
-3.84
-4.38
-4.38
-3.81
-2.89
-1.96
-1.43
-1.54
-2.21
-3.13
-3.82
-3.95
-3.42
-2.47
-1.51
-0.94
-0.95
-1.48
-2.24
-2.84
-3.01
-2.67
-1.95
-1.10
-0.34
0.25
0.71
1.19
1.78
2.48
3.21
3.84
4.31
4.58
4.62
4.37
3.79
2.91
1.89
0.95
0.37
0.35
0.92
2.01
3.40
4.83
6.06
6.88
7.24
7.16
6.74
6.09
5.27
4.31
3.18
1.89
0.50
-0.88
-2.13
-3.12
-3.80
-4.13
-4.16
-3.94
-3.52
-2.92
-2.16
-1.26
-0.27
0.63
1.23
1.40
1.15
0.73
0.45
0.59
1.24
2.21
3.20
3.89
4.10
3.79
3.10
2.26
1.48
0.98
0.88
1.17
1.69
2.18
2.39
2.20
1.67
0.97
0.29
-0.28
-0.76
-1.23
-1.70
-2.09
-2.21
-1.89
-1.06
0.17
1.53
2.75
3.59
4.01
4.05
3.79
3.31
2.55
1.53
0.32
-0.88
-1.79
-2.19
-2.07
-1.66
-1.33
-1.32
-1.67
-2.14
-2.41
-2.27
-1.82
-1.39
-1.36
-1.88
-2.82
-3.78
-4.32
-4.24
-3.51
-2.35
-0.94
0.63
2.34
4.16
5.93
7.35
8.12
8.14
7.48
6.45
5.38
4.54
3.98
3.66
3.45
3.22
2.92
2.53
2.10
1.64
1.20
0.77
0.31
-0.21
-0.76
-1.28
-1.69
-1.93
-1.96
-1.81
-1.53
-1.17
-0.82
-0.54
-0.39
-0.38
-0.47
-0.54
-0.43
-0.03
0.74
1.79
3.00
4.19
5.13
5.65
5.59
4.93
3.79
2.47
1.30
0.58
0.39
0.62
1.03
1.34
1.34
0.95
0.18
-0.85
-1.93
-2.81
-3.28
-3.26
-2.85
-2.38
-2.23
-2.70
-3.87
-5.60
-7.52
-9.25
-10.43
-10.88
-10.60
-9.72
-8.49
-7.15
-5.85
-4.70
-3.68
-2.77
-1.97
-1.36
-1.01
-0.99
-1.25
-1.67
-2.00
-2.06
-1.75
-1.14
-0.42
0.17
0.51
0.64
0.71
0.91
1.30
1.78
2.19
2.41
2.42
2.36
2.36
2.45
2.55
2.48
2.17
1.66
1.19
0.99
1.27
2.00
3.00
3.95
4.58
4.70
4.27
3.43
2.37
1.26
0.19
-0.78
-1.66
-2.45
-3.11
-3.61
-3.93
-4.07
-4.04
-3.87
-3.50
-2.92
-2.16
-1.35
-0.68
-0.32
-0.31
-0.59
-0.99
-1.36
-1.64
-1.87
-2.08
-2.28
-2.34
-2.09
-1.37
-0.17
1.41
3.13
4.79
6.26
7.49
8.45
9.05
9.14
8.60
7.42
5.82
4.17
2.80
1.92
1.50
1.34
1.22
1.02
0.72
0.33
-0.16
-0.78
-1.53
-2.30
-2.93
-3.29
-3.40
-3.43
-3.59
-3.96
-4.47
-4.97
-5.28
-5.33
-5.14
-4.77
-4.24
-3.57
-2.70
-1.66
-0.52
0.61
1.62
2.43
2.96
3.11
2.84
2.16
1.18
0.19
-0.49
-0.64
-0.29
0.30
0.66
0.44
-0.42
-1.66
-2.81
-3.45
-3.44
-2.96
-2.38
-2.07
-2.22
-2.83
-3.76
-4.82
-5.85
-6.71
-7.20
-7.20
-6.62
-5.55
-4.20
-2.84
-1.71
-0.90
-0.40
-0.13
0.00
0.01
-0.10
-0.34
-0.72
-1.26
-1.93
-2.71
-3.58
-4.50
-5.36
-6.05
-6.47
-6.58
-6.45
-6.23
-6.08
-6.12
-6.34
-6.66
-6.97
-7.20
-7.35
-7.50
-7.69
-7.92
-8.16
-8.33
-8.37
-8.23
-7.87
-7.26
-6.30
-4.99
-3.39
-1.64
0.05
1.46
2.52
3.27
3.87
4.44
4.99
5.38
5.44
5.07
4.34
3.46
2.71
2.23
2.02
1.99
2.04
2.13
2.29
2.58
2.97
3.34
3.54
3.53
3.34
3.10
2.92
2.79
2.65
2.43
2.10
1.68
1.18
0.58
-0.07
-0.67
-1.09
-1.12
-0.73
0.01
0.91
1.78
2.56
3.37
4.36
5.58
6.87
7.94
8.48
8.32
7.44
6.01
4.26
2.37
0.53
-1.12
-2.47
-3.44
-4.02
-4.25
-4.16
-3.74
-3.01
-2.01
-0.89
0.13
0.85
1.20
1.29
1.34
1.53
1.89
2.30
2.60
2.68
2.57
2.40
2.36
2.52
2.82
3.16
3.43
3.60
3.64
3.56
3.25
2.63
1.63
0.36
-0.89
-1.74
-1.91
-1.28
-0.03
1.46
2.80
3.72
4.15
4.19
4.04
3.84
3.72
3.70
3.73
3.74
3.60
3.24
2.64
1.89
1.20
0.75
0.71
1.11
1.90
2.93
4.06
5.13
5.98
6.43
6.32
5.56
4.21
2.49
0.72
-0.79
-1.86
-2.43
-2.62
-2.57
-2.46
-2.38
-2.37
-2.38
-2.32
-2.09
-1.66
-1.06
-0.36
0.36
1.01
1.55
2.01
2.40
2.81
3.26
3.78
4.32
4.82
5.21
5.41
5.43
5.34
5.30
5.43
5.80
6.31
6.81
7.09
7.05
6.66
5.96
5.07
4.06
3.08
2.22
1.61
1.34
1.36
1.52
1.61
1.43
0.93
0.28
-0.25
-0.45
-0.25
0.15
0.47
0.40
-0.18
-1.18
-2.36
-3.47
-4.32
-4.85
-5.11
-5.18
-5.10
-4.89
-4.51
-3.93
-3.20
-2.42
-1.73
-1.27
-1.06
-1.03
-1.03
-0.93
-0.64
-0.16
0.44
1.01
1.37
1.36
0.84
-0.15
-1.45
-2.77
-3.80
-4.31
-4.30
-3.89
-3.34
-2.82
-2.39
-2.00
-1.58
-1.09
-0.59
-0.16
0.13
0.26
0.25
0.14
-0.02
-0.22
-0.43
-0.60
-0.68
-0.65
-0.55
-0.46
-0.40
-0.36
-0.25
0.03
0.52
1.18
1.86
2.46
2.90
3.23
3.51
3.88
4.40
5.09
5.89
6.69
7.33
7.67
7.64
7.26
6.73
6.29
6.18
6.42
6.87
7.20
7.10
6.42
5.21
3.74
2.32
1.23
0.62
0.51
0.80
1.32
1.92
2.44
2.76
2.82
2.59
2.09
1.36
0.44
-0.55
-1.51
-2.27
-2.72
-2.84
-2.72
-2.52
-2.40
-2.41
-2.47
-2.41
-2.16
-1.77
-1.40
-1.27
-1.48
-1.90
-2.30
-2.39
-2.05
-1.31
-0.38
0.52
1.23
1.75
2.14
2.45
2.73
2.98
3.21
3.44
3.69
3.97
4.19
4.25
4.07
3.64
3.00
2.26
1.54
0.83
0.10
-0.71
-1.65
-2.68
-3.67
-4.51
-5.09
-5.39
-5.43
-5.22
-4.75
-3.96
-2.85
-1.49
-0.09
1.07
1.77
1.92
1.63
1.16
0.80
0.76
1.13
1.80
2.59
3.26
3.62
3.58
3.13
2.37
1.47
0.60
-0.09
-0.54
-0.75
-0.87
-1.05
-1.47
-2.17
-3.12
-4.13
-4.96
-5.45
-5.58
-5.45
-5.25
-5.09
-4.94
-4.58
-3.77
-2.26
-0.02
2.77
5.71
8.32
10.18
11.10
11.10
10.40
9.34
8.19
7.15
6.26
5.44
4.61
3.71
2.67
1.49
0.17
-1.24
-2.67
-3.98
-5.08
-5.95
-6.66
-7.35
-8.17
-9.15
-10.21
-11.14
-11.76
-11.91
-11.58
-10.81
-9.68
-8.26
-6.62
-4.88
-3.16
-1.64
-0.45
0.34
0.74
0.75
0.44
-0.16
-0.98
-1.89
-2.74
-3.43
-3.91
-4.19
-4.37
-4.52
-4.70
-4.96
-5.31
-5.78
-6.42
-7.24
-8.18
-9.18
-10.15
-11.05
-11.91
-12.81
-13.87
-15.14
-16.61
-18.16
-19.56
-20.52
-20.71
-19.98
-18.25
-15.64
-12.43
-8.93
-5.49
-2.41
0.10
1.85
2.76
2.79
2.07
0.92
-0.23
-0.97
-1.04
-0.50
0.33
1.04
1.26
0.84
-0.17
-1.56
-3.10
-4.65
-6.12
-7.49
-8.74
-9.92
-11.10
-12.43
-14.04
-15.95
-18.03
-19.87
-20.90
-20.49
-18.20
-13.97
-8.13
-1.43
5.21
11.01
15.39
18.22
19.62
19.92
19.47
18.58
17.47
16.28
15.13
14.08
13.14
12.26
11.25
9.91
8.06
5.70
2.99
0.27
-2.10
-3.95
-5.35
-6.60
-8.11
-10.21
-13.00
-16.32
-19.77
-22.79
-24.72
-25.02
-23.38
-19.86
-14.89
-9.18
-3.45
1.74
6.10
9.52
11.90
13.19
13.34
12.45
10.91
9.25
8.02
7.50
7.63
8.01
8.12
7.58
6.32
4.55
2.70
1.14
0.06
-0.62
-1.21
-2.10
-3.58
-5.84
-8.83
-12.42
-16.36
-20.29
-23.59
-25.52
-25.29
-22.33
-16.62
-8.73
0.23
8.99
16.47
22.11
25.85
27.97
28.86
28.74
27.74
25.86
23.20
20.03
16.73
13.74
11.35
9.62
8.35
7.19
5.83
4.12
2.17
0.25
-1.39
-2.63
-3.55
-4.44
-5.58
-7.20
-9.41
-12.19
-15.46
-19.05
-22.62
-25.57
-27.09
-26.40
-22.98
-16.86
-8.62
0.72
9.99
18.18
24.69
29.29
32.13
33.49
33.68
33.00
31.66
29.89
27.93
26.09
24.61
23.59
22.93
22.35
21.47
19.99
17.78
14.92
11.67
8.31
5.04
1.94
-1.03
-3.96
-6.96
-10.14
-13.61
-17.53
-21.97
-26.79
-31.52
-35.38
-37.39
-36.79
-33.32
-27.41
-20.00
-12.13
-4.62
2.12
8.01
13.00
16.97
19.70
21.04
21.10
20.26
19.03
17.82
16.84
16.06
15.36
14.61
13.75
12.77
11.65
10.37
8.87
7.15
5.20
3.04
0.73
-1.68
-4.04
-6.24
-8.18
-9.97
-11.85
-14.25
-17.47
-21.53
-25.98
-29.90
-32.20
-31.93
-28.70
-22.82
-15.17
-6.88
1.03
7.85
13.25
17.16
19.60
20.64
20.42
19.18
17.38
15.50
14.00
13.11
12.84
12.95
13.16
13.18
12.84
12.16
11.24
10.26
9.33
8.43
7.48
6.30
4.78
2.91
0.75
-1.56
-3.93
-6.35
-8.99
-12.01
-15.45
-19.07
-22.32
-24.41
-24.55
-22.15
-17.13
-9.99
-1.70
6.55
13.69
19.03
22.41
24.11
24.59
24.29
23.46
22.16
20.43
18.38
16.26
14.44
13.21
12.68
12.76
13.19
13.64
13.83
13.58
12.78
11.40
9.48
7.15
4.58
2.05
-0.17
-1.88
-3.11
-4.10
-5.34
-7.30
-10.23
-13.83
-17.26
-19.38
-19.11
-15.90
-9.95
-2.20
6.10
13.72
19.86
24.18
26.76
27.83
27.64
26.46
24.52
22.16
19.71
17.47
15.64
14.31
13.47
13.06
13.02
13.25
13.63
13.91
13.81
13.09
11.67
9.62
7.17
4.61
2.17
-0.04
-2.05
-4.04
-6.22
-8.80
-11.90
-15.40
-18.93
-21.82
-23.25
-22.46
-19.12
-13.43
-6.22
1.34
8.12
13.38
16.88
18.87
19.73
19.79
19.18
17.89
15.95
13.61
11.31
9.52
8.56
8.41
8.78
9.19
9.20
8.64
7.55
6.18
4.77
3.40
1.98
0.35
-1.60
-3.86
-6.29
-8.73
-11.05
-13.22
-15.22
-16.93
-18.07
-18.25
-17.08
-14.37
-10.23
-5.14
0.25
5.31
9.54
12.73
14.87
16.04
16.32
15.78
14.54
12.83
11.00
9.41
8.21
7.32
6.46
5.33
3.81
2.00
0.12
-1.63
-3.12
-4.35
-5.26
-5.75
-5.64
-4.88
-3.67
-2.47
-1.81
-2.04
-3.16
-4.66
-5.80
-5.79
-4.11
-0.70
4.12
9.68
15.15
19.81
23.08
24.72
24.76
23.56
21.62
19.47
17.56
16.08
15.02
14.16
13.18
11.75
9.63
6.73
3.10
-1.13
-5.72
-10.37
-14.68
-18.27
-20.83
-22.30
-22.96
-23.43
-24.49
-26.82
-30.64
-35.60
-40.76
-44.90
-46.85
-45.90
-41.99
-35.67
-27.90
-19.70
-11.90
-5.00
0.81
5.50
9.00
11.16
11.85
11.09
9.18
6.75
4.50
3.05
2.64
3.13
4.08
5.00
5.54
5.61
5.32
4.89
4.45
4.01
3.39
2.35
0.71
-1.55
-4.29
-7.26
-10.19
-12.81
-14.84
-15.92
-15.62
-13.59
-9.76
-4.45
1.58
7.47
12.49
16.23
18.76
20.29
21.09
21.29
20.89
19.90
18.38
16.53
14.60
12.82
11.31
10.00
8.67
7.06
4.94
2.32
-0.58
-3.41
-5.80
-7.58
-8.81
-9.70
-10.49
-11.37
-12.36
-13.48
-14.73
-16.08
-17.38
-18.31
-18.37
-17.18
-14.54
-10.65
-6.02
-1.29
2.97
6.41
8.90
10.48
11.24
11.29
10.71
9.65
8.24
6.66
5.05
3.48
2.03
0.74
-0.44
-1.53
-2.54
-3.52
-4.44
-5.26
-5.93
-6.53
-7.17
-8.07
-9.44
-11.39
-13.85
-16.57
-19.15
-21.14
-22.07
-21.60
-19.60
-16.16
-11.62
-6.49
-1.31
3.41
7.33
10.30
12.31
13.45
13.82
13.52
12.67
11.47
10.16
8.98
8.10
7.52
7.11
6.61
5.84
4.76
3.50
2.24
1.07
-0.08
-1.43
-3.18
-5.42
-8.09
-11.02
-14.06
-17.11
-20.03
-22.56
-24.28
-24.69
-23.46
-20.54
-16.24
-11.07
-5.58
-0.17
4.90
9.43
13.17
15.79
17.03
16.84
15.51
13.55
11.51
9.81
8.58
7.73
6.99
6.14
5.03
3.61
1.97
0.22
-1.59
-3.44
-5.37
-7.50
-9.92
-12.70
-15.81
-19.15
-22.53
-25.71
-28.37
-30.11
-30.46
-29.02
-25.61
-20.36
-13.78
-6.58
0.49
6.83
12.15
16.32
19.33
21.20
21.95
21.66
20.56
19.00
17.38
16.00
14.98
14.25
13.58
12.72
11.49
9.86
7.92
5.82
3.76
1.87
0.16
-1.48
-3.24
-5.31
-7.78
-10.67
-13.88
-17.20
-20.34
-22.91
-24.43
-24.42
-22.54
-18.69
-13.15
-6.48
0.59
7.30
13.08
17.49
20.39
21.80
21.92
21.12
19.81
18.38
17.10
16.07
15.23
14.41
13.45
12.23
10.75
9.08
7.35
5.65
4.03
2.44
0.81
-0.95
-2.90
-5.03
-7.31
-9.72
-12.28
-15.05
-18.09
-21.33
-24.49
-27.05
-28.36
-27.81
-25.02
-20.08
-13.48
-6.02
1.46
8.25
13.89
18.20
21.17
22.91
23.59
23.37
22.43
20.95
19.13
17.18
15.32
13.68
12.33
11.20
10.11
8.83
7.20
5.15
2.76
0.16
-2.52
-5.18
-7.80
-10.37
-12.92
-15.47
-18.05
-20.69
-23.42
-26.22
-28.87
-30.95
-31.91
-31.17
-28.35
-23.53
-17.12
-9.90
-2.71
3.75
9.06
13.09
15.92
17.74
18.73
19.01
18.74
18.04
17.13
16.14
15.22
14.37
13.52
12.60
11.58
10.46
9.27
7.94
6.36
4.40
2.01
-0.73
-3.62
-6.38
-8.85
-10.97
-12.82
-14.61
-16.58
-18.91
-21.59
-24.26
-26.29
-26.93
-25.56
-21.95
-16.35
-9.41
-1.96
5.26
11.65
16.84
20.65
23.05
24.16
24.23
23.63
22.67
21.60
20.53
19.39
18.14
16.69
15.02
13.16
11.23
9.38
7.74
6.33
5.06
3.76
2.26
0.51
-1.39
-3.27
-5.03
-6.75
-8.69
-11.18
-14.33
-17.98
-21.63
-24.59
-26.18
-25.98
-23.85
-20.00
-14.92
-9.21
-3.58
1.43
5.45
8.42
10.48
11.84
12.60
12.73
12.08
10.55
8.23
5.45
2.70
0.42
-1.08
-1.78
-1.91
-1.87
-2.08
-2.90
-4.49
-6.83
-9.77
-13.03
-16.29
-19.24
-21.57
-23.13
-24.03
-24.62
-25.42
-26.87
-29.02
-31.35
-32.90
-32.56
-29.57
-23.80
-15.82
-6.70
2.40
10.52
17.12
22.02
25.32
27.15
27.70
27.19
25.90
24.29
22.89
22.19
22.38
23.30
24.41
25.06
24.74
23.31
21.03
18.44
16.05
14.16
12.72
11.41
9.88
7.88
5.38
2.51
-0.48
-3.43
-6.23
-8.80
-10.90
-12.08
-11.79
-9.61
-5.43
0.32
6.82
13.09
18.35
22.21
24.67
25.97
26.36
26.07
25.25
24.05
22.66
21.26
19.96
18.80
17.74
16.77
15.90
15.09
14.29
13.35
12.14
10.61
8.84
7.04
5.38
3.94
2.64
1.35
-0.03
-1.46
-2.76
-3.76
-4.38
-4.73
-5.06
-5.63
-6.51
-7.50
-8.22
-8.29
-7.58
-6.23
-4.63
-3.18
-2.08
-1.29
-0.61
0.16
1.09
2.07
2.94
3.51
3.67
3.40
2.73
1.74
0.57
-0.62
-1.70
-2.58
-3.34
-4.06
-4.85
-5.74
-6.70
-7.66
-8.58
-9.49
-10.38
-11.22
-11.86
-12.04
-11.50
-10.11
-7.96
-5.37
-2.79
-0.60
0.99
1.98
2.55
2.89
3.10
3.16
2.99
2.53
1.84
1.11
0.50
0.10
-0.17
-0.50
-1.10
-2.12
-3.51
-5.07
-6.54
-7.69
-8.44
-8.89
-9.29
-9.96
-11.06
-12.62
-14.36
-15.87
-16.76
-16.70
-15.64
-13.68
-11.08
-8.08
-4.97
-1.99
0.61
2.57
3.76
4.17
4.01
3.59
3.24
3.19
3.46
3.89
4.25
4.34
4.02
3.29
2.18
0.78
-0.83
-2.49
-4.12
-5.64
-7.14
-8.76
-10.67
-12.91
-15.32
-17.57
-19.27
-20.04
-19.71
-18.28
-15.89
-12.77
-9.19
-5.45
-1.88
1.23
3.61
5.15
5.83
5.77
5.16
4.19
3.13
2.24
1.72
1.61
1.77
1.89
1.63
0.77
-0.65
-2.37
-4.04
-5.39
-6.40
-7.30
-8.41
-10.02
-12.20
-14.78
-17.35
-19.45
-20.66
-20.70
-19.51
-17.16
-13.84
-9.80
-5.38
-0.96
3.05
6.27
8.50
9.72
10.13
10.00
9.63
9.21
8.80
8.41
7.96
7.33
6.34
4.83
2.72
0.13
-2.62
-5.10
-6.95
-8.09
-8.67
-9.11
-9.82
-11.09
-13.03
-15.48
-18.09
-20.30
-21.44
-20.87
-18.17
-13.38
-7.02
-0.00
6.68
12.24
16.31
18.92
20.38
21.00
20.96
20.30
19.03
17.24
15.16
13.08
11.24
9.74
8.47
7.25
5.88
4.29
2.56
0.85
-0.65
-1.84
-2.72
-3.41
-4.09
-5.00
-6.37
-8.36
-10.97
-13.97
-16.89
-19.10
-19.94
-18.98
-16.08
-11.53
-5.91
-0.02
5.36
9.63
12.48
13.95
14.36
14.16
13.76
13.46
13.30
13.22
13.04
12.63
11.98
11.14
10.22
9.31
8.38
7.42
6.41
5.40
4.45
3.64
2.93
2.16
1.17
-0.19
-1.96
-4.01
-6.15
-8.22
-10.06
-11.60
-12.77
-13.41
-13.32
-12.31
-10.29
-7.38
-3.92
-0.39
2.68
4.92
6.20
6.66
6.57
6.24
5.85
5.42
4.86
4.13
3.27
2.42
1.78
1.45
1.37
1.35
1.13
0.52
-0.47
-1.73
-3.04
-4.25
-5.36
-6.47
-7.77
-9.43
-11.48
-13.89
-16.52
-19.13
-21.41
-22.93
-23.22
-21.97
-19.14
-15.03
-10.22
-5.38
-1.03
2.58
5.40
7.48
8.84
9.45
9.29
8.49
7.29
6.03
4.96
4.19
3.65
3.14
2.48
1.54
0.29
-1.18
-2.71
-4.16
-5.44
-6.57
-7.67
-8.87
-10.30
-12.04
-14.09
-16.37
-18.73
-20.89
-22.41
-22.77
-21.52
-18.42
-13.65
-7.75
-1.53
4.27
9.10
12.78
15.35
16.94
17.67
17.60
16.83
15.54
14.04
12.65
11.62
10.97
10.52
9.97
9.00
7.50
5.57
3.48
1.50
-0.21
-1.77
-3.40
-5.39
-7.87
-10.73
-13.76
-16.69
-19.42
-21.99
-24.43
-26.58
-28.05
-28.27
-26.66
-22.95
-17.30
-10.25
-2.59
4.92
11.64
17.16
21.30
24.05
25.49
25.74
25.02
23.57
21.70
19.73
17.97
16.60
15.65
15.05
14.60
14.10
13.35
12.21
10.59
8.53
6.18
3.77
1.57
-0.29
-1.81
-3.26
-4.90
-6.96
-9.42
-12.16
-15.03
-17.88
-20.55
-22.70
-23.86
-23.43
-20.94
-16.36
-10.18
-3.34
3.18
8.63
12.77
15.67
17.62
18.79
19.26
19.07
18.31
17.28
16.29
15.57
15.13
14.81
14.34
13.55
12.46
11.25
10.17
9.31
8.63
7.87
6.77
5.16
3.06
0.68
-1.68
-3.77
-5.52
-7.02
-8.56
-10.39
-12.67
-15.26
-17.74
-19.54
-20.11
-19.12
-16.52
-12.54
-7.62
-2.20
3.27
8.40
12.84
16.31
18.58
19.63
19.59
18.73
17.30
15.57
13.72
11.93
10.37
9.14
8.25
7.49
6.61
5.41
3.78
1.86
-0.15
-2.05
-3.76
-5.30
-6.71
-8.01
-9.16
-10.16
-11.06
-11.98
-13.05
-14.37
-15.88
-17.39
-18.62
-19.18
-18.70
-16.89
-13.70
-9.35
-4.40
0.45
4.61
7.73
9.85
11.24
12.21
12.91
13.31
13.27
12.71
11.76
10.64
9.58
8.66
7.78
6.74
5.40
3.76
1.98
0.27
-1.25
-2.53
-3.67
-4.75
-5.84
-6.97
-8.18
-9.47
-10.85
-12.32
-13.82
-15.32
-16.79
-18.08
-18.95
-19.04
-17.98
-15.53
-11.72
-6.94
-1.77
3.14
7.31
10.56
12.92
14.56
15.67
16.33
16.54
16.25
15.47
14.30
12.92
11.54
10.30
9.26
8.36
7.48
6.48
5.29
3.86
2.20
0.31
-1.74
-3.92
-6.15
-8.31
-10.28
-11.98
-13.40
-14.55
-15.56
-16.49
-17.28
-17.73
-17.45
-16.09
-13.42
-9.57
-4.89
0.01
4.59
8.45
11.41
13.48
14.75
15.31
15.29
14.82
14.03
13.11
12.16
11.28
10.48
9.71
8.84
7.75
6.35
4.70
2.95
1.31
-0.05
-1.08
-1.89
-2.66
-3.59
-4.77
-6.16
-7.69
-9.25
-10.79
-12.24
-13.48
-14.29
-14.40
-13.59
-11.80
-9.16
-6.04
-2.83
0.15
2.76
5.00
6.97
8.70
10.13
11.14
11.68
11.82
11.75
11.66
11.68
11.78
11.79
11.54
10.88
9.84
8.56
7.21
5.92
4.70
3.51
2.25
0.82
-0.86
-2.80
-4.96
-7.21
-9.38
-11.29
-12.79
-13.83
-14.36
-14.41
-13.97
-12.99
-11.37
-9.07
-6.15
-2.89
0.32
3.05
5.00
6.13
6.58
6.62
6.47
6.28
6.10
5.97
5.98
6.24
6.80
7.55
8.26
8.66
8.62
8.16
7.45
6.69
5.97
5.29
4.61
3.89
3.14
2.33
1.37
0.13
-1.47
-3.39
-5.42
-7.20
-8.40
-8.83
-8.47
-7.46
-6.01
-4.30
-2.50
-0.70
0.98
2.38
3.43
4.09
4.37
4.36
4.15
3.80
3.36
2.84
2.29
1.74
1.24
0.80
0.39
-0.04
-0.56
-1.18
-1.92
-2.80
-3.84
-5.16
-6.77
-8.69
-10.76
-12.78
-14.51
-15.79
-16.66
-17.24
-17.70
-18.10
-18.41
-18.60
-18.72
-19.07
-20.00
-21.77
-24.24
-26.87
-28.83
-29.45
-28.43
-25.92
-22.33
-18.08
-13.39
-8.35
-3.13
1.95
6.38
9.78
12.04
13.45
14.55
15.78
17.29
18.83
20.00
20.38
19.78
18.22
15.87
12.95
9.74
6.59
3.91
2.06
1.27
1.52
2.55
4.02
5.65
7.21
8.63
9.80
10.63
11.02
10.95
10.46
9.72
8.86
7.94
6.99
6.02
5.11
4.38
4.01
4.05
4.41
4.88
5.14
4.93
4.16
2.85
1.18
-0.71
-2.66
-4.59
-6.46
-8.19
-9.69
-10.86
-11.59
-11.75
-11.26
-9.98
-7.78
-4.68
-0.82
3.45
7.69
11.52
14.82
17.65
20.26
22.88
25.60
28.38
31.07
33.50
35.53
37.11
38.27
39.11
39.79
40.57
41.78
43.68
46.41
49.87
53.78
57.88
62.01
66.28
71.02
76.66
83.50
91.62
100.76
110.47
120.10
129.05
136.82
143.09
147.83
151.23
153.70
155.69
157.56
159.48
161.47
163.65
166.35
170.18
175.76
183.25
191.84
199.56
203.67
201.45
191.11
172.39
146.54
115.72
82.37
48.62
16.12
-13.89
-40.76
-64.47
-85.75
-105.76
-125.48
-145.08
-163.76
-180.18
-193.30
-203.19
-211.12
-219.00
-228.48
-240.44
-254.86
-271.26
-288.95
-306.91
-323.48
-336.17
-342.11
-338.99
-325.97
-304.10
-275.98
-244.84
-213.52
-183.98
-157.22
-133.60
-113.18
-95.88
-81.39
-69.15
-58.39
-48.40
-38.71
-29.22
-20.09
-11.69
-4.36
1.65
6.32
9.81
12.49
14.75
16.91
19.09
21.16
22.87
23.91
24.09
23.42
22.07
20.30
18.34
16.39
14.55
12.82
11.08
9.16
6.79
3.80
0.17
-3.81
-7.55
-10.43
-11.92
-11.97
-11.00
-9.81
-9.28
-9.98
-12.03
-15.14
-18.78
-22.40
-25.55
-27.86
-28.96
-28.58
-26.61
-23.16
-18.58
-13.32
-7.74
-2.04
3.67
9.22
14.25
18.25
20.79
21.75
21.37
20.20
18.76
17.25
15.58
13.42
10.50
6.79
2.59
-1.66
-5.62
-9.16
-12.45
-15.78
-19.37
-23.22
-27.15
-30.92
-34.41
-37.58
-40.33
-42.37
-43.13
-42.01
-38.69
-33.31
-26.52
-19.19
-11.99
-5.10
1.68
8.64
15.81
22.79
28.88
33.44
36.13
37.03
36.52
35.03
32.92
30.44
27.82
25.34
23.27
21.72
20.50
19.18
17.28
14.45
10.74
6.43
1.94
-2.46
-6.70
-10.96
-15.43
-20.24
-25.36
-30.54
-35.35
-39.16
-41.16
-40.49
-36.58
-29.37
-19.53
-8.27
3.05
13.39
22.25
29.66
35.92
41.22
45.52
48.59
50.31
50.80
50.39
49.54
48.57
47.54
46.33
44.74
42.70
40.29
37.70
35.10
32.52
29.83
26.84
23.34
19.28
14.81
10.16
5.61
1.32
-2.69
-6.59
-10.61
-15.01
-19.99
-25.66
-31.98
-38.69
-45.31
-51.04
-54.88
-55.76
-52.90
-46.00
-35.49
-22.40
-8.17
5.77
18.32
28.85
37.23
43.64
48.27
51.29
52.70
52.54
50.95
48.30
45.14
42.06
39.48
37.54
36.05
34.66
33.10
31.27
29.34
27.55
25.99
24.52
22.80
20.45
17.27
13.42
9.25
5.22
1.61
-1.53
-4.43
-7.43
-10.81
-14.80
-19.48
-24.89
-30.94
-37.39
-43.68
-48.94
-52.10
-52.22
-48.78
-41.94
-32.54
-21.78
-10.83
-0.52
8.76
16.95
24.07
30.01
34.54
37.38
38.49
38.10
36.78
35.20
33.98
33.49
33.79
34.72
35.91
36.96
37.50
37.29
36.25
34.50
32.32
29.92
27.42
24.72
21.60
17.87
13.54
8.78
3.91
-0.83
-5.30
-9.53
-13.67
-17.83
-22.10
-26.63
-31.52
-36.84
-42.46
-47.88
-52.25
-54.53
-53.81
-49.56
-41.93
-31.63
-19.72
-7.25
4.91
16.15
25.99
34.00
39.80
43.15
44.18
43.43
41.72
39.81
38.22
37.07
36.11
35.01
33.49
31.46
29.04
26.38
23.60
20.79
17.99
15.21
12.47
9.81
7.27
4.82
2.42
0.02
-2.45
-5.06
-7.86
-10.93
-14.40
-18.45
-23.20
-28.65
-34.50
-40.12
-44.56
-46.75
-45.79
-41.25
-33.35
-22.90
-11.13
0.68
11.54
20.80
28.22
33.80
37.61
39.76
40.44
39.94
38.63
36.99
35.41
34.17
33.29
32.68
32.14
31.58
30.95
30.31
29.70
29.12
28.42
27.35
25.63
23.02
19.44
15.00
9.98
4.76
-0.26
-4.81
-8.79
-12.32
-15.65
-19.12
-23.02
-27.43
-32.13
-36.65
-40.22
-42.04
-41.35
-37.73
-31.23
-22.34
-11.93
-0.98
9.52
18.83
26.40
31.90
35.22
36.45
35.96
34.27
32.00
29.65
27.51
25.63
23.87
22.06
20.08
17.96
15.79
13.69
11.72
9.86
8.03
6.10
3.94
1.45
-1.37
-4.44
-7.57
-10.54
-13.19
-15.54
-17.75
-20.15
-23.07
-26.72
-30.99
-35.48
-39.56
-42.47
-43.57
-42.46
-39.11
-33.82
-27.19
-19.93
-12.79
-6.36
-1.06
2.82
5.12
5.81
4.98
2.88
-0.03
-3.16
-5.81
-7.37
-7.42
-5.82
-2.79
1.18
5.37
9.05
11.62
12.68
12.15
10.22
7.30
3.82
0.14
-3.60
-7.41
-11.40
-15.70
-20.39
-25.51
-31.05
-36.85
-42.48
-47.11
-49.64
-49.00
-44.59
-36.64
-26.21
-14.85
-4.10
5.05
12.26
17.75
21.91
25.03
27.20
28.40
28.58
27.86
26.50
24.81
23.14
21.71
20.66
19.95
19.45
18.94
18.19
17.06
15.57
13.83
11.98
10.12
8.15
5.88
3.04
-0.51
-4.76
-9.50
-14.36
-18.87
-22.49
-24.71
-25.14
-23.58
-20.12
-15.13
-9.15
-2.74
3.61
9.55
14.76
18.91
21.62
22.59
21.78
19.51
16.43
13.40
11.15
10.04
10.03
10.67
11.34
11.50
10.86
9.49
7.71
5.95
4.51
3.50
2.81
2.22
1.51
0.48
-1.03
-3.08
-5.61
-8.28
-10.32
-10.74
-8.56
-3.30
4.74
14.53
24.71
34.05
41.83
47.91
52.50
55.86
58.14
59.33
59.45
58.58
56.87
54.47
51.50
47.98
43.88
39.23
34.07
28.48
22.59
16.58
10.76
5.48
1.05
-2.36
-4.80
-6.56
-8.08
-9.77
-11.94
-14.72
-18.07
-21.74
-25.30
-28.13
-29.48
-28.68
-25.40
-19.74
-12.36
-4.29
3.35
9.64
14.05
16.48
17.14
16.32
14.34
11.52
8.22
4.96
2.25
0.53
-0.06
0.28
1.06
1.71
1.84
1.30
0.23
-1.09
-2.40
-3.51
-4.39
-5.09
-5.76
-6.57
-7.62
-8.92
-10.22
-11.11
-11.11
-9.89
-7.42
-3.99
-0.11
3.63
6.77
9.07
10.39
10.76
10.25
9.01
7.24
5.24
3.26
1.42
-0.24
-1.81
-3.38
-4.97
-6.53
-7.94
-9.11
-9.97
-10.50
-10.72
-10.71
-10.63
-10.71
-11.21
-12.27
-13.82
-15.47
-16.60
-16.58
-14.99
-11.83
-7.50
-2.70
1.83
5.49
7.98
9.30
9.64
9.31
8.58
7.66
6.61
5.44
4.13
2.70
1.24
-0.10
-1.27
-2.33
-3.46
-4.97
-7.06
-9.83
-13.19
-16.90
-20.66
-24.18
-27.28
-29.93
-32.23
-34.42
-36.70
-39.18
-41.62
-43.54
-44.29
-43.42
-40.88
-37.14
-33.18
-30.10
-28.81
-29.74
-32.70
-36.99
-41.65
-45.79
-48.88
-51.01
-52.84
-55.45
-59.92
-66.85
-76.04
-86.31
-95.64
-101.62
-102.14
-96.04
-83.48
-65.98
-45.73
-24.79
-4.18
16.36
38.14
62.58
90.13
119.61
148.29
172.71
189.89
198.27
198.05
190.73
178.26
162.25
143.64
122.96
100.82
78.32
57.01
38.29
22.89
10.46
-0.15
-10.22
-20.46
-30.61
-39.72
-46.71
-51.10
-53.36
-54.72
-56.64
-60.15
-65.40
-71.70
-77.80
-82.37
-84.49
-83.89
-80.97
-76.62
-71.90
-67.69
-64.42
-61.92
-59.51
-56.33
-51.72
-45.43
-37.85
-29.68
-21.54
-13.58
-5.24
4.62
17.31
33.73
53.83
76.33
98.76
117.99
131.03
135.81
131.79
119.87
102.02
80.47
57.23
33.83
11.55
-8.27
-24.25
-35.11
-40.21
-39.90
-35.46
-28.72
-21.39
-14.67
-9.04
-4.42
-0.53
2.81
5.50
7.18
7.47
6.17
3.49
0.01
-3.45
-6.20
-7.89
-8.69
-9.12
-9.77
-11.00
-12.81
-14.91
-16.91
-18.60
-20.03
-21.53
-23.54
-26.45
-30.37
-35.07
-39.87
-43.74
-45.52
-44.27
-39.55
-31.67
-21.59
-10.61
0.04
9.58
17.68
24.34
29.61
33.42
35.59
36.00
34.80
32.42
29.54
26.74
24.39
22.53
20.98
19.48
17.83
15.95
13.85
11.57
9.13
6.58
3.98
1.42
-1.06
-3.46
-5.88
-8.56
-11.78
-15.74
-20.45
-25.61
-30.60
-34.48
-36.28
-35.20
-30.90
-23.64
-14.21
-3.74
6.54
15.62
22.90
28.12
31.38
32.94
33.12
32.19
30.39
27.94
25.08
22.08
19.12
16.41
14.00
11.89
10.03
8.36
6.80
5.27
3.66
1.85
-0.21
-2.50
-4.90
-7.22
-9.37
-11.35
-13.33
-15.59
-18.44
-22.09
-26.53
-31.47
-36.22
-39.86
-41.35
-39.88
-35.15
-27.51
-17.88
-7.48
2.52
11.26
18.30
23.47
26.82
28.47
28.58
27.47
25.51
23.16
20.80
18.67
16.86
15.27
13.76
12.25
10.70
9.17
7.72
6.37
4.98
3.35
1.28
-1.31
-4.32
-7.46
-10.39
-12.88
-14.91
-16.76
-18.90
-21.80
-25.75
-30.64
-35.86
-40.42
-43.13
-42.93
-39.28
-32.29
-22.77
-11.90
-0.97
8.96
17.25
23.68
28.24
31.04
32.21
31.94
30.50
28.32
25.91
23.75
22.18
21.25
20.73
20.31
19.61
18.42
16.69
14.50
11.96
9.15
6.15
2.98
-0.23
-3.38
-6.29
-8.90
-11.18
-13.23
-15.24
-17.50
-20.36
-24.06
-28.58
-33.51
-37.99
-40.88
-41.11
-37.99
-31.53
-22.42
-11.85
-1.13
8.67
16.86
23.17
27.57
30.16
31.14
30.76
29.37
27.41
25.31
23.37
21.67
20.14
18.61
16.91
15.02
13.06
11.22
9.71
8.59
7.73
6.84
5.53
3.55
0.87
-2.21
-5.26
-7.92
-10.10
-12.00
-14.03
-16.64
-20.06
-24.26
-28.94
-33.55
-37.44
-39.80
-39.93
-37.38
-32.10
-24.52
-15.50
-6.03
2.96
10.80
17.11
21.75
24.69
26.03
26.00
24.91
23.20
21.30
19.54
18.07
16.90
15.92
15.04
14.18
13.34
12.50
11.65
10.74
9.71
8.48
7.00
5.21
3.06
0.56
-2.18
-5.03
-7.82
-10.51
-13.25
-16.32
-20.05
-24.54
-29.48
-34.09
-37.27
-37.97
-35.54
-30.00
-22.07
-12.93
-3.82
4.26
10.74
15.45
18.48
20.04
20.37
19.74
18.43
16.76
14.99
13.31
11.81
10.47
9.25
8.10
6.99
5.90
4.85
3.80
2.69
1.42
-0.12
-2.03
-4.28
-6.75
-9.21
-11.46
-13.43
-15.20
-17.00
-19.11
-21.68
-24.66
-27.67
-30.07
-31.03
-29.81
-25.94
-19.48
-11.10
-1.84
7.08
14.68
20.40
24.09
25.95
26.23
25.20
23.12
20.34
17.33
14.62
12.59
11.38
10.83
10.56
10.17
9.37
8.09
6.38
4.28
1.83
-0.97
-4.08
-7.34
-10.52
-13.43
-16.06
-18.65
-21.63
-25.42
-30.18
-35.64
-41.09
-45.53
-47.94
-47.64
-44.41
-38.61
-30.94
-22.26
-13.31
-4.54
3.87
11.91
19.64
27.07
34.08
40.43
45.78
49.69
51.77
51.71
49.47
45.38
40.11
34.49
29.35
25.13
21.90
19.30
16.81
13.93
10.42
6.35
2.00
-2.23
-5.98
-9.02
-11.32
-13.05
-14.57
-16.32
-18.62
-21.50
-24.58
-27.15
-28.33
-27.44
-24.25
-19.07
-12.69
-6.06
-0.04
4.80
8.15
9.99
10.43
9.70
8.16
6.26
4.42
3.01
2.14
1.69
1.33
0.70
-0.48
-2.19
-4.19
-6.12
-7.66
-8.67
-9.27
-9.71
-10.36
-11.54
-13.43
-16.13
-19.50
-23.17
-26.46
-28.56
-28.66
-26.29
-21.51
-14.88
-7.32
0.24
7.09
12.84
17.38
20.74
23.00
24.21
24.48
23.95
22.87
21.47
19.90
18.16
16.10
13.53
10.37
6.81
3.30
0.37
-1.61
-2.66
-3.30
-4.35
-6.67
-10.78
-16.69
-23.97
-31.90
-39.79
-47.07
-53.25
-57.88
-60.42
-60.37
-57.37
-51.50
-43.22
-33.34
-22.69
-11.97
-1.63
8.06
16.86
24.41
30.34
34.31
36.23
36.25
34.83
32.54
29.94
27.50
25.38
23.56
21.72
19.47
16.41
12.31
7.22
1.44
-4.56
-10.40
-15.77
-20.63
-25.07
-29.27
-33.37
-37.34
-40.95
-43.67
-44.83
-43.78
-40.09
-33.78
-25.40
-15.87
-6.35
2.19
9.04
13.92
16.96
18.54
19.22
19.67
20.49
22.07
24.48
27.44
30.39
32.66
33.76
33.51
32.03
29.71
27.03
24.39
22.10
20.29
18.87
17.49
15.66
12.81
8.51
2.72
-4.16
-11.25
-17.44
-21.66
-23.21
-21.91
-18.19
-12.92
-7.19
-1.99
2.03
4.66
6.08
6.71
7.04
7.53
8.46
9.99
12.11
14.66
17.29
19.62
21.26
21.95
21.53
19.96
17.34
13.84
9.73
5.29
0.76
-3.83
-8.63
-13.92
-19.82
-26.23
-32.73
-38.75
-43.76
-47.37
-49.37
-49.60
-47.93
-44.32
-38.94
-32.30
-25.16
-18.38
-12.66
-8.41
-5.64
-4.08
-3.28
-2.82
-2.40
-1.89
-1.27
-0.52
0.53
2.19
4.78
8.45
12.94
17.63
21.76
24.73
26.46
27.28
27.76
28.23
28.55
28.09
26.04
21.91
15.82
8.57
1.33
-4.79
-9.05
-11.11
-10.89
-8.31
-3.34
3.80
12.28
20.53
26.54
28.54
25.74
18.74
9.27
-0.46
-8.63
-14.34
-17.63
-19.13
-19.40
-18.80
-17.45
-15.55
-13.59
-12.30
-12.29
-13.70
-16.05
-18.41
-19.89
-20.12
-19.40
-18.49
-18.18
-18.79
-20.01
-21.08
-21.12
-19.49
-16.03
-11.00
-4.99
1.35
7.37
12.55
16.52
19.11
20.36
20.52
20.00
19.16
18.38
17.91
17.98
18.75
20.28
22.40
24.63
26.24
26.50
25.08
22.28
18.94
16.09
14.39
13.73
13.21
11.59
7.95
2.30
-4.37
-10.30
-13.69
-13.32
-8.99
-1.53
7.50
16.43
24.00
29.70
33.85
37.22
40.60
44.39
48.42
52.06
54.47
54.92
52.89
48.13
40.64
30.83
19.58
8.27
-1.56
-8.80
-13.28
-15.92
-18.30
-21.89
-27.20
-33.66
-39.93
-44.84
-47.96
-49.83
-51.40
-53.20
-54.90
-55.33
-53.21
-47.84
-39.56
-29.54
-19.14
-9.17
0.36
10.05
20.45
31.43
41.98
50.54
55.72
56.94
54.66
50.14
44.72
39.31
34.14
28.95
23.45
17.59
11.63
5.86
0.38
-4.97
-10.36
-15.68
-20.41
-23.81
-25.32
-25.02
-23.71
-22.67
-23.01
-25.21
-28.73
-32.21
-34.02
-32.84
-28.14
-20.38
-10.68
-0.43
9.20
17.53
24.42
30.03
34.61
38.24
40.86
42.29
42.35
41.00
38.34
34.63
30.18
25.32
20.34
15.50
11.09
7.35
4.48
2.44
0.90
-0.74
-3.21
-7.04
-12.37
-18.86
-25.87
-32.75
-39.05
-44.54
-49.04
-52.15
-53.24
-51.56
-46.69
-38.83
-28.85
-18.08
-7.79
1.12
8.30
13.79
17.81
20.40
21.53
21.12
19.26
16.32
12.85
9.44
6.53
4.26
2.55
1.13
-0.28
-1.95
-4.07
-6.70
-9.82
-13.27
-16.80
-20.10
-22.93
-25.10
-26.68
-27.94
-29.34
-31.33
-34.10
-37.36
-40.29
-41.78
-40.77
-36.74
-29.85
-20.92
-11.04
-1.19
8.02
16.33
23.68
29.95
34.90
38.24
39.92
40.20
39.76
39.36
39.58
40.52
41.76
42.57
42.26
40.46
37.29
33.27
29.00
24.95
21.31
18.03
14.95
11.89
8.75
5.44
1.92
-1.83
-5.70
-9.47
-12.74
-15.05
-16.00
-15.41
-13.36
-10.16
-6.20
-1.86
2.62
7.14
11.64
16.06
20.22
23.90
26.80
28.66
29.29
28.63
26.78
24.00
20.67
17.21
13.96
11.08
8.53
6.14
3.74
1.33
-0.94
-2.80
-4.05
-4.72
-5.10
-5.65
-6.81
-8.87
-11.89
-15.67
-19.90
-24.09
-27.65
-29.89
-30.17
-28.09
-23.76
-17.80
-11.22
-5.08
-0.13
3.40
5.73
7.32
8.54
9.52
10.23
10.52
10.29
9.54
8.21
6.28
3.65
0.37
-3.40
-7.28
-10.85
-13.81
-16.03
-17.56
-18.53
-19.01
-18.96
-18.38
-17.48
-16.71
-16.71
-18.00
-20.74
-24.47
-28.21
-30.71
-30.87
-28.10
-22.52
-14.79
-5.95
2.97
11.11
17.94
23.20
26.89
29.18
30.32
30.56
30.11
29.11
27.70
25.99
24.11
22.19
20.24
18.11
15.56
12.41
8.60
4.41
0.32
-3.20
-5.93
-8.07
-10.13
-12.67
-16.00
-20.10
-24.61
-29.11
-33.20
-36.55
-38.84
-39.60
-38.36
-34.75
-28.84
-21.19
-12.73
-4.46
2.90
9.08
14.09
18.05
20.98
22.69
22.96
21.68
18.99
15.33
11.32
7.61
4.68
2.72
1.62
1.05
0.54
-0.31
-1.73
-3.78
-6.33
-9.28
-12.53
-16.13
-20.08
-24.31
-28.53
-32.28
-35.04
-36.38
-36.01
-33.81
-29.82
-24.13
-16.99
-8.78
-0.05
8.50
16.18
22.42
26.87
29.42
30.16
29.35
27.42
24.85
22.21
19.93
18.21
16.98
15.98
14.85
13.38
11.56
9.58
7.69
6.11
4.95
4.08
3.24
2.07
0.25
-2.40
-5.81
-9.59
-13.07
-15.51
-16.35
-15.39
-12.93
-9.57
-6.02
-2.83
-0.22
1.84
3.52
4.98
6.25
7.25
7.87
8.05
7.83
7.34
6.67
5.89
4.99
3.91
2.57
0.91
-1.06
-3.25
-5.48
-7.57
-9.32
-10.70
-11.79
-12.86
-14.28
-16.40
-19.36
-22.92
-26.40
-28.79
-29.06
-26.55
-21.25
-13.88
-5.67
2.07
8.37
12.85
15.68
17.33
18.22
18.51
18.05
16.62
14.10
10.68
6.80
3.10
0.10
-1.94
-3.08
-3.73
-4.35
-5.38
-6.99
-9.06
-11.20
-12.95
-13.96
-14.30
-14.38
-14.86
-16.28
-18.70
-21.51
-23.58
-23.64
-20.83
-15.07
-7.11
1.77
10.29
17.61
23.43
27.90
31.25
33.56
34.74
34.60
33.18
30.78
27.94
25.22
22.96
21.13
19.38
17.24
14.31
10.42
5.76
0.75
-3.98
-7.85
-10.48
-11.84
-12.34
-12.69
-13.68
-15.91
-19.55
-24.21
-29.08
-33.16
-35.47
-35.38
-32.63
-27.44
-20.38
-12.28
-4.05
3.49
9.77
14.54
17.83
19.86
20.92
21.18
20.77
19.70
18.03
15.83
13.23
10.37
7.39
4.40
1.50
-1.22
-3.73
-6.01
-8.12
-10.13
-12.18
-14.33
-16.64
-19.14
-21.85
-24.82
-28.00
-31.16
-33.80
-35.18
-34.60
-31.68
-26.60
-20.09
-13.22
-6.86
-1.41
3.28
7.61
11.85
15.89
19.18
21.16
21.50
20.42
18.49
16.40
14.56
12.98
11.34
9.31
6.81
4.04
1.45
-0.55
-1.76
-2.32
-2.56
-2.86
-3.58
-4.94
-7.06
-9.94
-13.35
-16.82
-19.56
-20.69
-19.52
-15.80
-9.91
-2.74
4.56
11.05
16.18
19.81
22.13
23.33
23.47
22.52
20.41
17.30
13.56
9.74
6.43
4.04
2.68
2.19
2.20
2.26
2.01
1.28
0.12
-1.19
-2.34
-3.12
-3.59
-4.13
-5.31
-7.57
-11.01
-15.22
-19.36
-22.45
-23.67
-22.61
-19.35
-14.42
-8.56
-2.56
2.88
7.32
10.60
12.86
14.35
15.36
15.97
16.08
15.40
13.70
11.00
7.63
4.13
1.09
-1.04
-2.08
-2.14
-1.57
-0.86
-0.52
-1.01
-2.56
-5.18
-8.61
-12.43
-16.22
-19.69
-22.74
-25.36
-27.54
-29.07
-29.63
-28.84
-26.46
-22.54
-17.38
-11.43
-5.17
1.00
6.78
11.90
16.08
19.07
20.73
21.07
20.37
19.05
17.61
16.47
15.88
15.89
16.31
16.82
17.02
16.61
15.46
13.69
11.61
9.56
7.82
6.46
5.37
4.29
2.96
1.16
-1.16
-3.96
-7.10
-10.31
-13.26
-15.56
-16.84
-16.80
-15.34
-12.60
-8.90
-4.73
-0.62
3.01
5.88
7.88
8.98
9.22
8.67
7.50
5.98
4.49
3.44
3.05
3.27
3.74
3.92
3.40
2.07
0.22
-1.70
-3.29
-4.46
-5.40
-6.40
-7.67
-9.19
-10.76
-12.19
-13.48
-14.73
-16.10
-17.50
-18.66
-19.08
-18.28
-16.06
-12.57
-8.26
-3.72
0.50
4.07
6.84
8.72
9.67
9.56
8.36
6.22
3.59
1.09
-0.72
-1.62
-1.78
-1.76
-2.11
-3.10
-4.63
-6.30
-7.63
-8.41
-8.75
-9.02
-9.71
-11.22
-13.75
-17.26
-21.47
-25.74
-29.23
-31.02
-30.33
-26.81
-20.70
-12.72
-3.87
4.82
12.59
18.94
23.62
26.56
27.87
27.77
26.64
24.95
23.14
21.48
20.05
18.78
17.47
15.95
14.08
11.85
9.32
6.63
4.01
1.70
-0.17
-1.64
-3.02
-4.79
-7.39
-11.07
-15.58
-20.29
-24.26
-26.61
-26.78
-24.67
-20.69
-15.53
-9.94
-4.50
0.39
4.58
7.97
10.51
12.13
12.81
12.64
11.81
10.58
9.18
7.73
6.17
4.39
2.30
-0.06
-2.50
-4.82
-6.89
-8.72
-10.45
-12.22
-14.15
-16.29
-18.76
-21.68
-25.12
-28.95
-32.69
-35.55
-36.66
-35.38
-31.59
-25.71
-18.52
-10.83
-3.27
3.84
10.34
16.09
20.88
24.42
26.42
26.84
25.85
23.91
21.60
19.47
17.84
16.70
15.76
14.58
12.81
10.37
7.47
4.51
1.84
-0.36
-2.24
-4.16
-6.57
-9.81
-14.01
-18.90
-23.90
-28.10
-30.51
-30.31
-27.20
-21.43
-13.86
-5.57
2.44
9.51
15.37
19.94
23.15
24.89
24.97
23.41
20.45
16.67
12.77
9.34
6.68
4.76
3.30
1.97
0.54
-1.03
-2.61
-4.00
-5.04
-5.70
-6.14
-6.60
-7.37
-8.60
-10.36
-12.63
-15.28
-18.07
-20.58
-22.19
-22.18
-19.99
-15.43
-8.84
-1.02
7.06
14.58
21.03
26.24
30.20
32.86
34.05
33.62
31.60
28.27
24.24
20.16
16.63
13.91
11.95
10.47
9.11
7.59
5.81
3.80
1.67
-0.49
-2.66
-4.83
-7.01
-9.23
-11.53
-14.02
-16.85
-20.15
-23.79
-27.32
-30.02
-31.06
-29.80
-26.05
-20.15
-12.86
-5.11
2.27
8.73
14.05
18.21
21.23
23.08
23.64
22.82
20.69
17.57
13.99
10.53
7.59
5.29
3.45
1.76
-0.03
-1.97
-3.96
-5.84
-7.53
-9.11
-10.74
-12.60
-14.81
-17.38
-20.32
-23.63
-27.23
-30.86
-34.00
-35.95
-35.96
-33.56
-28.72
-21.95
-14.15
-6.31
0.70
6.36
10.42
12.90
13.92
13.65
12.31
10.09
7.27
4.07
0.69
-2.69
-5.96
-8.95
-11.47
-13.24
-13.90
-13.17
-10.94
-7.43
-3.25
0.78
3.78
5.22
5.07
3.72
1.75
-0.42
-2.67
-5.08
-7.72
-10.25
-11.99
-12.09
-9.85
-5.11
1.71
9.76
18.04
25.70
32.22
37.32
40.89
42.96
43.58
42.91
41.16
38.64
35.64
32.45
29.24
26.11
23.04
20.06
17.24
14.69
12.59
11.04
10.02
9.37
8.79
8.01
6.84
5.26
3.37
1.34
-0.75
-2.92
-5.33
-8.17
-11.63
-15.70
-20.12
-24.28
-27.29
-28.23
-26.43
-21.72
-14.53
-5.74
3.56
12.31
19.75
25.39
29.02
30.69
30.62
29.27
27.14
24.80
22.66
20.91
19.52
18.31
17.08
15.73
14.23
12.73
11.43
10.45
9.87
9.57
9.27
8.66
7.47
5.61
3.22
0.56
-2.10
-4.56
-6.84
-9.10
-11.60
-14.62
-18.36
-22.76
-27.36
-31.32
-33.56
-33.11
-29.51
-23.02
-14.61
-5.56
2.98
10.25
15.97
20.15
22.83
24.01
23.69
22.07
19.62
16.99
14.76
13.20
12.22
11.51
10.72
9.72
8.63
7.70
7.12
6.88
6.70
6.21
5.10
3.31
1.02
-1.42
-3.66
-5.54
-7.09
-8.59
-10.33
-12.56
-15.33
-18.52
-21.81
-24.71
-26.65
-26.98
-25.22
-21.21
-15.23
-8.02
-0.53
6.34
11.98
16.13
18.79
20.09
20.19
19.22
17.41
15.09
12.67
10.56
8.96
7.88
7.14
6.55
5.98
5.44
5.03
4.81
4.69
4.49
3.93
2.84
1.23
-0.71
-2.71
-4.52
-6.08
-7.53
-9.09
-10.99
-13.36
-16.11
-18.91
-21.21
-22.41
-22.02
-19.83
-15.97
-10.87
-5.14
0.68
6.11
10.79
14.39
16.67
17.48
16.87
15.12
12.66
9.94
7.33
5.06
3.30
2.14
1.61
1.61
1.91
2.20
2.18
1.71
0.83
-0.26
-1.31
-2.17
-2.88
-3.65
-4.80
-6.57
-9.06
-12.13
-15.50
-18.71
-21.24
-22.62
-22.51
-20.79
-17.57
-13.18
-8.09
-2.84
2.06
6.24
9.46
11.67
12.95
13.43
13.29
12.70
11.75
10.54
9.14
7.60
6.02
4.47
3.03
1.74
0.63
-0.35
-1.27
-2.19
-3.16
-4.11
-4.94
-5.58
-6.05
-6.55
-7.34
-8.69
-10.70
-13.26
-16.06
-18.62
-20.43
-20.97
-19.85
-16.92
-12.37
-6.72
-0.68
4.98
9.70
13.18
15.39
16.41
16.38
15.42
13.70
11.52
9.28
7.39
6.11
5.47
5.22
4.98
4.39
3.30
1.79
0.08
-1.53
-2.91
-4.05
-5.07
-6.13
-7.37
-8.84
-10.58
-12.63
-14.98
-17.47
-19.71
-21.09
-20.92
-18.79
-14.71
-9.23
-3.22
2.44
7.13
10.64
13.02
14.41
14.89
14.46
13.16
11.25
9.15
7.33
6.12
5.54
5.31
5.02
4.33
3.11
1.49
-0.24
-1.82
-3.11
-4.09
-4.89
-5.69
-6.75
-8.31
-10.50
-13.35
-16.66
-19.98
-22.73
-24.31
-24.23
-22.28
-18.59
-13.57
-7.82
-2.02
3.24
7.56
10.76
12.85
13.95
14.16
13.59
12.34
10.54
8.49
6.52
4.96
3.96
3.47
3.25
2.97
2.39
1.44
0.20
-1.12
-2.39
-3.58
-4.78
-6.18
-7.96
-10.18
-12.80
-15.60
-18.23
-20.23
-21.15
-20.61
-18.43
-14.71
-9.76
-4.10
1.73
7.19
11.87
15.41
17.62
18.40
17.83
16.18
13.88
11.37
9.05
7.17
5.82
4.98
4.48
4.15
3.79
3.23
2.40
1.32
0.03
-1.44
-3.10
-4.99
-7.15
-9.61
-12.36
-15.40
-18.68
-22.03
-25.13
-27.44
-28.41
-27.63
-25.07
-21.06
-16.16
-10.97
-5.93
-1.22
3.10
7.01
10.38
12.97
14.46
14.63
13.40
10.98
7.79
4.37
1.25
-1.18
-2.80
-3.72
-4.18
-4.47
-4.74
-5.07
-5.48
-6.02
-6.85
-8.16
-10.08
-12.49
-15.00
-16.95
-17.66
-16.60
-13.59
-8.81
-2.69
4.22
11.41
18.34
24.48
29.21
31.91
32.10
29.67
25.00
19.01
12.89
7.72
4.16
2.28
1.58
1.33
0.90
-0.03
-1.41
-3.01
-4.62
-6.19
-7.85
-9.78
-12.08
-14.67
-17.37
-20.01
-22.44
-24.65
-26.53
-27.89
-28.30
-27.34
-24.70
-20.39
-14.77
-8.48
-2.22
3.45
8.15
11.67
13.82
14.36
13.02
9.75
4.87
-0.79
-6.13
-10.13
-12.31
-12.89
-12.73
-12.82
-13.78
-15.60
-17.67
-19.15
-19.43
-18.39
-16.46
-14.41
-13.05
-12.95
-14.30
-16.86
-20.02
-22.99
-24.93
-25.17
-23.31
-19.23
-13.05
-5.08
4.12
13.81
23.04
30.83
36.40
39.38
39.93
38.68
36.56
34.47
33.04
32.48
32.55
32.64
32.01
29.99
26.24
20.89
14.41
7.47
0.64
-5.80
-11.91
-18.01
-24.47
-31.52
-39.14
-47.02
-54.53
-60.81
-64.89
-65.87
-63.10
-56.40
-46.12
-33.12
-18.59
-3.83
9.91
21.67
30.75
36.83
39.94
40.39
38.76
35.78
32.15
28.51
25.21
22.36
19.88
17.51
14.98
12.08
8.67
4.67
0.05
-5.27
-11.40
-18.47
-26.64
-35.99
-46.32
-57.05
-67.10
-75.05
-79.42
-79.10
-73.79
-64.10
-51.35
-37.10
-22.73
-9.14
3.26
14.29
23.78
31.53
37.30
41.05
43.05
43.77
43.80
43.61
43.41
43.16
42.70
41.79
40.25
37.97
35.01
31.57
27.97
24.58
21.66
19.29
17.27
15.14
12.33
8.30
2.60
-4.95
-14.23
-24.65
-35.14
-44.25
-50.50
-52.80
-50.91
-45.53
-38.08
-30.16
-22.99
-17.11
-12.42
-8.47
-4.78
-1.10
2.68
6.67
11.08
16.08
21.68
27.47
32.66
36.34
37.86
37.19
34.96
32.24
30.09
29.20
29.63
30.92
32.22
32.70
31.73
28.99
24.46
18.32
10.90
2.51
-6.58
-16.28
-26.61
-37.58
-48.87
-59.63
-68.33
-73.06
-72.13
-64.73
-51.45
-34.13
-15.28
2.76
18.60
31.92
43.23
53.23
62.36
70.62
77.72
83.42
87.64
90.49
92.07
92.39
91.36
88.87
85.03
80.18
74.85
69.53
64.60
60.18
56.18
52.43
48.74
45.07
41.42
37.78
33.92
29.42
23.62
15.97
6.28
-5.14
-17.48
-29.73
-41.03
-50.95
-59.49
-66.98
-73.79
-80.08
-85.71
-90.25
-93.04
-93.33
-90.34
-83.51
-72.67
-58.23
-41.16
-22.89
-4.96
11.29
24.98
35.74
43.56
48.64
51.17
51.33
49.31
45.42
40.14
34.10
27.91
22.04
16.69
11.80
7.22
2.86
-1.31
-5.18
-8.69
-11.87
-14.83
-17.71
-20.51
-23.10
-25.24
-26.76
-27.61
-27.85
-27.60
-26.92
-25.87
-24.61
-23.48
-22.91
-23.20
-24.18
-25.11
-24.80
-22.15
-16.61
-8.54
0.98
10.53
18.95
25.72
31.01
35.33
39.17
42.62
45.35
46.82
46.69
44.91
41.88
38.13
34.10
30.02
25.91
21.74
17.69
14.05
11.15
9.17
7.96
7.18
6.40
5.38
4.07
2.63
1.23
-0.09
-1.42
-2.94
-4.80
-6.97
-9.37
-11.81
-14.15
-16.39
-18.68
-21.23
-24.20
-27.64
-31.37
-35.04
-38.15
-40.10
-40.32
-38.37
-34.03
-27.45
-19.05
-9.50
0.48
10.23
19.17
26.91
33.14
37.78
40.87
42.65
43.40
43.32
42.47
40.79
38.19
34.70
30.51
25.97
21.44
17.24
13.56
10.50
8.12
6.52
5.71
5.65
6.17
6.92
7.47
7.43
6.54
4.75
2.18
-0.95
-4.42
-8.15
-12.18
-16.72
-22.01
-28.27
-35.52
-43.49
-51.54
-58.73
-63.98
-66.33
-65.11
-60.23
-52.15
-41.80
-30.37
-18.97
-8.48
0.56
8.01
13.91
18.47
21.88
24.28
25.70
26.17
25.75
24.60
23.01
21.30
19.73
18.36
17.07
15.66
14.01
12.13
10.17
8.24
6.30
4.15
1.57
-1.55
-5.08
-8.71
-12.20
-15.49
-18.75
-22.26
-26.24
-30.65
-35.28
-39.81
-43.96
-47.64
-50.70
-52.85
-53.57
-52.21
-48.26
-41.60
-32.65
-22.24
-11.40
-1.04
8.15
15.69
21.31
24.83
26.28
25.96
24.47
22.52
20.73
19.35
18.27
17.15
15.74
14.07
12.44
11.29
10.92
11.38
12.37
13.44
14.11
13.92
12.64
10.23
7.06
3.84
1.51
0.82
1.95
4.31
6.73
7.96
7.30
4.87
1.64
-1.09
-2.17
-1.01
2.42
7.74
14.42
21.95
29.84
37.64
44.88
51.14
56.12
59.70
61.98
63.37
64.53
66.26
69.31
74.02
80.16
86.87
93.02
97.63
100.40
101.82
102.92
104.69
107.45
110.56
112.61
111.96
107.59
99.49
88.76
77.08
66.05
56.57
48.56
41.31
33.97
26.08
17.81
9.78
2.68
-3.05
-7.39
-10.62
-13.01
-14.74
-15.82
-16.28
-16.31
-16.32
-16.81
-18.15
-20.46
-23.57
-27.14
-30.83
-34.46
-38.07
-41.81
-45.87
-50.27
-54.79
-59.02
-62.54
-65.08
-66.69
-67.65
-68.32
-68.91
-69.33
-69.29
-68.45
-66.63
-63.86
-60.35
-56.32
-51.95
-47.29
-42.42
-37.48
-32.69
-28.32
-24.54
-21.49
-19.20
-17.70
-17.04
-17.17
-17.91
-18.88
-19.55
-19.42
-18.09
-15.47
-11.82
-7.73
-4.03
-1.54
-0.81
-1.98
-4.70
-8.32
-12.04
-15.12
-17.04
-17.55
-16.68
-14.83
-12.73
-11.46
-12.09
-15.37
-21.38
-29.44
-38.35
-46.92
-54.47
-61.04
-67.19
-73.50
-79.97
-85.98
-90.67
-93.83
-96.48
-100.59
-108.34
-121.44
-140.89
-167.24
-200.73
-240.64
-284.53
-327.61
-363.47
-385.95
-391.46
-380.48
-356.97
-326.28
-292.91
-258.89
-224.08
-187.58
-149.24
-110.14
-72.28
-37.55
-7.06
19.31
42.69
64.55
85.87
106.18
123.33
133.79
133.91
121.38
96.39
61.89
22.77
-15.50
-48.20
-72.13
-85.76
-88.96
-82.81
-69.39
-51.56
-32.49
-14.82
0.13
12.37
22.69
31.55
38.00
39.49
32.78
15.42
-12.82
-49.42
-89.55
-127.53
-158.13
-177.75
-184.80
-179.56
-163.87
-140.66
-113.39
-85.49
-59.86
-38.53
-22.54
-12.05
-6.54
-5.03
-6.37
-9.23
-12.29
-14.36
-14.51
-12.13
-6.97
0.95
11.43
24.11
38.62
54.47
71.02
87.44
102.75
116.06
126.73
134.61
140.02
143.67
146.41
148.89
151.44
154.03
156.47
158.60
160.51
162.40
164.49
166.75
168.76
169.84
169.17
166.02
159.88
150.46
137.69
121.75
103.22
83.33
64.07
47.98
37.72
35.38
41.73
55.81
75.08
95.93
114.53
127.70
133.42
131.06
121.30
105.79
86.72
66.33
46.50
28.46
12.80
-0.49
-11.66
-21.00
-28.69
-34.74
-39.11
-41.76
-42.67
-41.88
-39.46
-35.63
-30.84
-25.81
-21.43
-18.59
-17.89
-19.56
-23.32
-28.47
-34.00
-38.82
-42.04
-43.23
-42.58
-40.71
-38.27
-35.28
-30.78
-23.00
-9.86
10.11
37.14
70.07
106.66
144.02
179.11
209.20
232.30
247.81
256.85
262.30
267.95
277.05
290.95
308.31
325.75
339.38
346.58
346.90
341.61
332.46
320.16
303.97
282.24
253.72
218.68
179.07
137.76
97.30
59.16
23.68
-9.15
-38.83
-64.03
-82.96
-94.20
-97.34
-93.08
-82.85
-68.28
-50.79
-31.63
-12.23
5.30
18.10
23.24
19.00
6.04
-12.23
-30.60
-44.06
-49.88
-48.62
-43.61
-39.13
-38.60
-43.66
-54.48
-70.63
-91.54
-116.10
-141.77
-164.38
-178.97
-181.90
-172.65
-154.34
-132.45
-112.48
-97.84
-88.97
-83.86
-79.64
-73.89
-65.33
-53.74
-39.38
-22.88
-5.09
12.70
28.68
40.83
47.57
48.27
43.61
35.19
24.91
14.45
5.15
-1.55
-3.76
0.85
14.19
36.33
64.41
92.62
113.70
121.40
112.83
89.52
56.68
21.03
-11.56
-37.59
-56.04
-67.21
-71.38
-68.14
-56.72
-37.01
-10.33
20.47
51.93
80.96
105.62
124.79
137.42
141.99
136.63
120.19
93.47
60.13
25.92
-2.99
-22.55
-32.46
-36.39
-40.58
-51.23
-72.07
-102.89
-139.61
-175.83
-205.05
-222.69
-227.22
-220.05
-204.53
-184.38
-162.55
-140.62
-118.98
-97.46
-75.95
-54.70
-34.27
-15.21
2.15
17.64
31.17
42.73
52.39
60.34
66.80
71.62
74.03
72.75
66.70
55.63
40.38
22.46
3.36
-15.81
-34.01
-49.53
-59.80
-62.05
-54.96
-40.08
-21.98
-6.88
-0.11
-4.10
-17.73
-37.37
-58.94
-79.56
-97.98
-113.85
-126.56
-134.50
-135.38
-127.16
-109.24
-83.15
-52.30
-20.94
7.11
29.42
45.28
55.20
60.22
61.29
59.16
54.65
48.83
42.93
37.88
33.86
30.19
25.64
19.16
10.40
-0.02
-10.85
-20.70
-28.50
-33.70
-36.23
-36.33
-34.50
-31.38
-27.75
-24.34
-21.61
-19.61
-18.02
-16.39
-14.34
-11.82
-9.11
-6.65
-4.85
-3.91
-3.69
-3.81
-3.80
-3.23
-1.86
0.39
3.41
6.97
10.75
14.40
17.61
20.18
22.01
23.09
23.34
22.51
20.15
15.74
8.97
-0.03
-10.52
-21.21
-30.72
-37.93
-42.45
-44.63
-45.37
-45.65
-46.11
-46.87
-47.60
-47.88
-47.42
-46.22
-44.45
-42.27
-39.71
-36.67
-33.12
-29.20
-25.29
-21.84
-19.14
-17.16
-15.52
-13.63
-10.95
-7.14
-2.18
3.57
9.53
14.99
19.32
22.23
23.78
24.52
25.20
26.57
29.00
32.34
35.94
39.06
41.21
42.54
43.91
46.60
51.89
60.61
72.94
88.46
106.22
124.82
142.34
156.44
164.82
166.00
160.16
149.34
136.84
125.84
118.12
113.41
109.93
105.63
99.40
91.53
83.26
75.87
70.04
65.77
62.94
61.89
63.46
68.51
77.23
88.64
100.83
111.64
119.47
123.69
124.62
123.09
119.88
115.50
110.13
103.66
95.88
86.55
75.56
63.10
49.78
36.59
24.62
14.68
6.90
0.64
-5.25
-12.01
-20.58
-31.38
-44.24
-58.49
-73.13
-87.16
-99.75
-110.59
-119.96
-128.46
-136.72
-144.99
-153.01
-160.13
-165.53
-168.48
-168.37
-164.93
-158.27
-149.25
-139.43
-130.63
-124.21
-120.19
-117.04
-112.17
-103.21
-89.11
-70.63
-49.85
-29.12
-9.94
7.28
22.87
37.08
49.65
59.89
67.30
72.23
75.99
80.34
86.65
95.20
105.00
114.29
121.34
125.09
125.38
122.73
117.97
111.93
105.28
98.49
91.57
83.91
74.23
61.01
43.30
21.56
-1.98
-23.94
-41.00
-51.25
-54.88
-53.82
-50.74
-47.93
-46.75
-47.77
-51.28
-57.60
-66.93
-78.90
-92.24
-104.87
-114.62
-120.09
-121.31
-119.65
-117.20
-115.89
-116.82
-120.08
