1493663240.00
64.000000
-0.00
-0.00
-0.00
-0.00
-0.00
-0.00
-0.00
-0.00
-0.00
-0.00
0.00
0.01
0.01
-0.00
-0.03
-0.05
-0.05
0.00
0.13
0.36
0.66
1.01
1.37
1.72
2.06
2.40
2.79
3.24
3.80
4.42
5.06
5.66
6.20
6.68
7.15
7.68
8.31
9.14
10.09
11.04
11.88
12.56
13.14
13.76
14.65
15.96
17.91
20.32
22.90
25.38
27.58
29.57
31.68
34.32
37.81
42.54
48.15
54.10
59.83
64.97
69.58
74.14
79.34
85.71
93.76
103.00
112.62
121.73
129.77
136.75
143.30
150.75
157.77
166.64
177.95
191.79
206.97
220.57
228.25
225.36
208.53
176.87
132.76
80.05
23.07
-34.94
-92.44
-149.16
-205.23
-260.37
-313.74
-363.87
-409.83
-450.91
-486.50
-515.74
-537.23
-549.22
-549.96
-538.37
-514.21
-478.67
-433.88
-382.45
-327.02
-269.84
-212.63
-156.66
-102.95
-52.37
-5.90
35.58
71.43
101.35
125.50
144.38
158.69
169.15
176.37
180.75
182.57
182.07
179.51
175.23
169.65
163.18
156.15
148.81
141.30
133.69
126.02
118.33
110.69
103.16
95.80
88.68
81.83
75.25
68.95
62.95
57.25
51.86
46.78
42.03
37.59
33.45
29.61
26.07
22.81
19.83
17.11
14.67
12.48
10.54
8.83
7.35
6.07
4.97
4.05
3.27
2.62
2.09
1.65
1.30
1.01
0.79
0.61
0.48
0.37
0.29
0.22
0.18
0.14
0.11
0.09
0.08
0.07
0.06
0.05
0.05
0.06
0.06
0.07
0.09
0.11
0.13
0.15
0.18
0.21
0.26
0.32
0.41
0.49
0.54
0.52
0.42
0.26
0.08
-0.05
-0.07
0.04
0.25
0.49
0.67
0.71
0.62
0.45
0.31
0.28
0.43
0.71
1.02
1.22
1.20
0.96
0.64
0.44
0.57
1.10
1.90
2.71
3.17
3.07
2.42
1.56
0.96
1.11
2.18
3.91
5.63
6.58
6.21
4.56
2.25
0.34
-0.18
1.12
3.83
6.75
8.44
7.79
4.59
-0.35
-5.63
-9.84
-12.21
-12.98
-13.27
-14.67
-18.72
-26.66
-38.89
-54.46
-70.62
-82.60
-85.03
-73.61
-47.71
-11.63
26.12
55.52
68.93
64.01
44.38
18.00
-6.13
-21.00
-23.47
-14.32
2.88
23.59
43.66
60.25
72.06
79.20
82.65
83.89
84.80
86.98
91.36
97.44
102.90
103.58
95.31
76.00
47.20
14.36
-15.81
-37.53
-48.14
-48.59
-42.27
-32.95
-23.48
-15.22
-8.59
-4.44
-3.42
-5.61
-10.06
-15.02
-18.40
-18.80
-15.99
-10.87
-6.26
-5.60
-12.57
-29.81
-57.71
-93.31
-130.79
-163.43
-179.97
-174.15
-144.94
-96.40
-35.79
28.54
88.66
137.35
168.55
178.13
164.06
128.28
76.04
14.70
-48.43
-107.60
-158.90
-199.11
-224.69
-233.01
-222.89
-196.86
-160.30
-119.15
-77.34
-35.77
7.01
52.80
101.14
149.06
190.91
221.72
239.52
245.44
241.50
229.00
207.95
177.84
139.35
93.45
42.77
-8.74
-56.91
-99.35
-135.39
-165.29
-189.42
-198.56
-186.63
-155.48
-114.42
-73.54
-39.60
-15.12
-0.22
6.38
6.56
0.99
-10.01
-24.93
-41.98
-61.04
-82.84
-108.38
-138.01
-170.85
-205.82
-240.94
-273.82
-295.57
-301.42
-290.04
-263.60
-226.38
-183.31
-139.20
-97.03
-57.52
-19.70
17.26
54.63
93.45
133.82
174.04
210.07
237.22
252.60
257.50
256.36
255.35
259.00
268.18
280.79
294.50
309.69
329.76
358.36
394.65
431.60
457.60
461.49
437.87
389.64
326.38
259.63
198.24
145.54
100.13
58.48
17.70
-23.58
-65.72
-109.56
-157.01
-210.24
-269.43
-330.67
-385.68
-423.90
-436.21
-418.60
-373.85
-310.27
-238.03
-165.27
-95.99
-30.91
30.02
84.75
128.53
155.58
161.82
146.84
113.71
67.27
12.23
-47.35
-107.34
-162.11
-204.17
-225.42
-219.51
-184.68
-125.01
-50.26
26.30
90.62
130.97
140.30
117.23
65.92
-5.13
-84.72
-161.16
-223.78
-264.19
-278.02
-265.70
-231.95
-184.17
-130.13
-75.64
-23.48
26.68
77.02
129.07
182.37
234.36
281.15
319.00
345.81
361.40
367.94
369.60
369.17
367.07
362.19
353.25
340.00
323.63
304.44
282.61
260.22
237.46
213.23
188.01
163.85
143.15
127.14
111.58
91.39
67.61
40.50
9.21
-24.64
-58.16
-88.82
-115.60
-144.51
-181.37
-222.16
-265.89
-315.83
-372.49
-432.42
-487.90
-528.33
-550.28
-553.31
-531.62
-491.46
-449.80
-420.58
-410.03
-415.79
-389.46
-303.69
-219.76
-162.95
-122.10
-97.13
-87.19
-90.43
-105.09
-129.79
-169.01
-222.87
-274.85
-310.96
-325.39
-315.86
-285.26
-240.75
-191.14
-148.80
-121.23
-101.94
-85.34
-70.31
-55.35
-39.19
-21.08
-0.91
17.45
30.47
41.06
50.63
58.10
63.83
69.11
75.59
84.66
95.87
108.88
126.35
149.93
179.42
214.66
255.73
303.27
358.33
420.71
488.00
555.13
613.10
651.07
660.47
638.29
587.95
517.39
435.58
349.67
264.39
183.45
111.34
53.74
15.70
-0.82
1.56
16.54
36.93
57.61
76.65
94.29
110.95
125.50
135.29
137.51
130.77
115.77
94.83
70.51
44.54
17.51
-11.03
-42.27
-77.52
-117.37
-160.70
-203.91
-240.92
-264.76
-270.05
-255.45
-224.65
-185.17
-145.57
-112.42
-88.68
-73.80
-65.55
-61.87
-61.91
-65.65
-72.86
-82.14
-90.97
-96.57
-96.99
-91.89
-82.67
-71.66
-60.99
-51.70
-43.58
-35.64
-27.03
-17.74
-8.54
-0.49
6.01
11.65
17.91
26.14
36.64
48.16
58.33
64.60
65.24
59.99
49.97
37.23
24.02
12.35
3.59
-1.67
-3.62
-3.18
-1.59
-0.05
0.73
0.96
1.73
4.49
10.82
21.78
37.26
55.46
73.08
85.90
90.06
83.38
66.11
41.48
14.90
-7.73
-22.05
-26.60
-23.06
-15.44
-8.59
-7.10
-13.62
-28.40
-49.59
-73.88
-96.90
-113.77
-120.07
-113.16
-94.50
-67.76
-37.18
-6.25
22.69
48.49
70.75
89.31
104.21
113.70
118.68
123.26
132.23
147.34
165.67
180.99
186.92
179.70
155.60
116.28
68.29
19.06
-27.46
-71.36
-114.83
-160.13
-208.53
-264.92
-330.04
-398.08
-459.01
-503.65
-526.66
-527.26
-509.02
-445.72
-335.66
-203.86
-83.61
7.31
69.05
109.59
136.74
155.95
171.03
179.94
181.66
179.13
178.73
185.88
202.68
227.17
253.63
274.23
277.90
257.19
212.73
151.66
82.50
11.47
-56.87
-120.59
-178.25
-219.48
-233.20
-214.18
-168.74
-110.88
-54.01
-5.43
34.03
66.77
92.78
108.03
105.66
79.94
31.04
-34.28
-105.52
-172.96
-230.82
-272.03
-293.97
-296.68
-282.21
-252.03
-206.96
-148.34
-78.63
-0.76
82.75
164.89
241.47
298.61
321.05
301.77
248.06
178.12
110.93
58.08
20.20
-9.65
-40.55
-75.91
-110.36
-133.39
-135.59
-114.12
-74.51
-28.82
9.61
30.47
31.48
19.00
3.09
-7.58
-8.55
0.43
16.79
37.08
57.91
70.46
69.24
51.16
17.51
-24.72
-64.39
-90.11
-95.12
-80.04
-51.56
-17.48
16.27
47.74
78.36
110.82
147.16
187.81
231.70
276.49
319.11
354.59
376.94
380.73
363.30
325.80
272.84
210.63
144.80
79.42
16.04
-45.80
-107.60
-170.83
-235.56
-299.49
-357.64
-403.22
-429.40
-431.96
-411.09
-371.26
-319.89
-264.75
-212.15
-165.67
-126.29
-92.89
-62.94
-32.77
2.05
45.72
100.42
164.23
230.09
286.83
322.65
329.82
308.64
268.19
223.36
189.18
175.26
182.69
204.71
230.37
248.98
253.34
240.74
212.16
170.71
120.19
64.54
7.49
-47.73
-98.54
-143.70
-183.89
-221.95
-262.30
-309.05
-363.59
-422.64
-478.26
-520.02
-539.02
-531.51
-500.49
-454.27
-402.95
-354.52
-312.63
-276.75
-244.06
-211.71
-178.18
-143.24
-107.18
-70.04
-31.51
8.60
49.95
91.57
132.33
171.87
211.27
252.74
298.17
347.31
396.63
439.76
469.60
481.24
473.91
451.10
418.79
383.11
348.76
318.64
294.15
275.40
261.04
247.97
231.92
208.96
177.43
138.97
97.80
58.73
25.01
-2.53
-24.99
-43.97
-60.39
-74.25
-85.25
-93.60
-100.13
-105.75
-110.67
-113.89
-112.93
-104.33
-84.57
-51.47
-5.89
47.39
100.39
143.89
170.52
177.34
166.88
145.74
121.78
100.40
83.03
68.01
52.29
33.07
8.25
-23.45
-62.34
-107.14
-155.06
-200.98
-237.78
-258.24
-257.96
-237.20
-199.90
-150.88
-93.10
-28.75
40.01
109.45
173.26
222.90
249.98
250.05
225.07
182.78
131.22
75.73
18.25
-41.84
-106.36
-176.91
-253.60
-335.04
-406.59
-452.70
-466.65
-454.10
-424.48
-382.78
-329.46
-265.01
-193.47
-122.13
-60.80
-16.87
8.32
20.04
26.18
32.60
41.32
51.17
59.96
64.78
64.12
58.91
52.70
49.45
51.63
59.49
71.86
87.30
103.88
120.60
135.43
148.29
159.92
170.75
180.52
188.35
193.13
193.53
188.81
179.26
166.57
152.60
138.29
123.26
106.20
85.66
60.78
31.89
0.57
-30.46
-58.50
-81.59
-98.87
-110.39
-116.69
-118.53
-116.65
-111.88
-104.90
-96.45
-87.14
-77.39
-67.50
-57.88
-49.12
-42.19
-38.20
-38.09
-42.28
-50.23
-60.22
-69.59
-75.43
-75.76
-70.61
-62.39
-55.32
-53.70
-59.83
-72.63
-87.77
-99.38
-102.61
-95.73
-80.71
-62.02
-44.52
-31.45
-23.59
-19.66
-17.58
-15.60
-12.94
-9.63
-6.09
-2.95
-0.95
-0.98
-4.05
-10.70
-20.57
-32.16
-43.12
-50.93
-53.90
-51.87
-46.75
-42.57
-44.89
-59.83
-92.19
-143.07
-208.14
-277.43
-337.58
-375.85
-384.40
-362.55
-316.52
-256.27
-191.37
-127.77
-66.55
-5.69
58.13
127.58
204.48
289.38
380.93
475.17
565.01
641.28
694.42
717.65
708.79
671.88
614.51
544.39
467.11
385.40
301.25
216.19
132.88
53.72
-18.22
-81.72
-138.35
-191.59
-245.41
-301.22
-360.05
-419.40
-474.89
-517.54
-537.65
-528.65
-490.03
-428.51
-353.50
-278.66
-209.42
-154.28
-114.63
-83.47
-51.59
-11.03
34.70
81.86
124.47
165.48
201.61
235.34
270.14
308.28
350.10
394.05
441.28
484.57
519.23
536.79
532.90
508.12
467.73
419.48
350.95
296.21
251.44
215.15
180.49
143.39
102.96
60.41
16.58
-29.39
-75.38
-125.71
-178.96
-237.97
-302.52
-368.85
-430.76
-482.60
-521.28
-543.30
-552.24
-521.31
-439.63
-318.31
-185.09
-64.97
30.53
100.80
152.16
187.48
215.05
234.99
246.52
250.19
247.35
238.41
221.81
196.98
162.15
118.75
65.36
3.45
-61.94
-124.87
-180.67
-227.26
-264.80
-295.70
-321.94
-348.33
-376.84
-405.77
-432.98
-455.75
-470.99
-474.97
-463.60
-433.02
-384.26
-320.43
-245.42
-165.29
-85.21
-7.97
66.29
138.43
215.87
290.47
342.69
367.04
362.32
330.97
280.07
219.03
155.95
95.62
37.22
-23.58
-89.06
-157.62
-222.60
-273.70
-300.87
-298.37
-265.79
-208.53
-136.84
-59.74
17.30
92.58
167.42
243.65
313.91
362.94
393.76
408.43
399.34
365.65
311.82
245.59
174.79
104.50
36.66
-29.40
-98.11
-172.11
-248.72
-321.59
-382.32
-423.09
-439.46
-430.91
-400.85
-357.72
-310.23
-263.51
-220.06
-180.35
-144.19
-111.94
-83.96
-59.84
-39.44
-21.35
-2.54
19.30
44.65
72.06
98.69
121.72
139.44
151.16
158.34
164.74
174.64
190.65
211.72
232.50
244.79
240.63
215.48
170.26
110.70
44.29
-22.82
-86.94
-145.86
-196.79
-235.12
-255.38
-253.95
-231.53
-193.78
-149.41
-106.84
-71.42
-44.44
-24.08
-7.32
8.32
24.33
41.56
61.15
85.34
117.40
160.57
216.24
282.00
350.63
411.55
453.92
470.28
459.02
424.44
373.61
312.82
245.49
172.98
97.18
22.75
-43.40
-94.96
-129.88
-151.82
-168.18
-185.58
-205.79
-224.44
-233.43
-225.41
-197.50
-152.18
-95.02
-31.48
35.17
103.42
171.54
235.45
288.64
323.96
336.20
324.41
292.19
245.51
189.68
127.73
60.41
-11.42
-83.92
-149.59
-198.73
-223.17
-219.84
-191.87
-146.54
-91.53
-31.66
31.90
98.96
166.58
227.32
270.61
287.03
272.93
232.08
173.69
107.81
41.11
-24.37
-89.47
-153.84
-213.33
-260.00
-285.64
-284.90
-256.86
-204.56
-133.83
-52.31
31.02
106.34
164.04
195.39
195.85
168.25
123.42
77.61
48.16
48.44
83.85
150.74
234.82
316.29
377.16
406.82
404.29
376.28
333.23
284.42
236.12
188.13
136.58
78.46
13.91
-54.16
-121.56
-183.92
-244.64
-293.93
-320.66
-323.37
-310.15
-290.30
-269.24
-249.01
-230.19
-213.15
-196.33
-179.29
-162.50
-146.59
-132.13
-120.91
-116.21
-121.45
-138.10
-163.65
-194.36
-226.01
-252.90
-267.65
-262.11
-231.33
-172.31
-92.89
-7.89
65.32
114.37
137.36
136.70
123.29
111.06
108.64
116.14
128.34
139.34
144.69
141.40
127.24
102.07
71.28
36.59
1.44
-30.50
-57.51
-80.78
-103.73
-129.88
-160.29
-193.85
-228.64
-257.51
-274.55
-276.23
-263.23
-241.08
-218.84
-205.80
-208.68
-229.19
-262.09
-297.73
-325.05
-335.91
-327.62
-302.81
-266.90
-225.33
-181.75
-137.17
-91.89
-46.98
-4.93
30.87
57.77
75.35
85.57
92.02
98.95
109.76
126.28
147.96
171.61
191.74
202.02
197.64
177.63
146.03
110.67
80.47
62.10
57.73
65.20
80.06
98.27
118.04
139.79
164.74
193.31
224.81
258.14
292.73
328.80
366.25
403.24
435.31
455.95
458.71
439.75
399.44
342.35
275.62
206.43
140.18
79.41
24.22
-26.83
-75.75
-124.85
-176.66
-233.67
-297.34
-366.39
-435.79
-497.05
-540.37
-558.23
-548.37
-514.83
-466.39
-413.22
-363.35
-320.83
-285.71
-255.57
-227.37
-198.62
-167.82
-134.45
-98.90
-62.25
-26.00
8.52
40.92
71.89
103.12
136.88
175.44
220.40
271.84
327.20
380.53
422.95
445.28
441.62
412.65
366.43
315.26
270.43
237.41
214.26
193.98
169.46
137.85
102.04
68.54
43.74
30.60
27.98
31.92
37.81
42.16
43.44
41.93
39.13
36.76
35.80
35.96
36.05
35.09
33.63
34.50
42.17
60.66
90.72
128.76
167.77
200.25
221.17
229.28
226.86
218.37
209.01
203.33
204.41
213.85
231.94
256.74
283.52
305.55
316.32
311.86
291.52
257.20
212.78
163.65
115.07
70.72
32.18
-0.75
-29.61
-57.21
-87.85
-125.37
-170.78
-222.69
-278.87
-337.88
-399.60
-461.04
-511.34
-541.44
-552.16
-550.69
-543.02
-530.15
-508.95
-475.12
-426.37
-364.73
-298.21
-237.52
-189.43
-155.33
-131.70
-112.59
-92.51
-69.33
-45.41
-26.77
-20.59
-28.19
-45.38
-63.97
-75.18
-72.95
-56.17
-28.44
2.86
29.83
51.39
71.07
94.40
125.77
167.27
213.34
260.67
307.58
341.57
354.88
343.70
309.99
259.72
199.90
136.98
76.97
28.41
-11.06
-40.63
-58.86
-65.39
-61.96
-52.41
-41.65
-34.84
-35.30
-44.87
-60.06
-75.11
-84.42
-84.63
-76.04
-62.59
-50.33
-45.68
-53.64
-73.44
-99.58
-124.21
-139.75
-140.96
-126.43
-98.70
-64.09
-31.36
-7.76
3.25
1.69
-9.58
-26.06
-43.15
-56.91
-64.73
-64.47
-53.38
-27.78
13.15
64.92
118.02
160.80
183.93
183.29
161.47
118.63
62.96
7.13
-37.87
-67.10
-80.11
-77.31
-61.21
-34.48
-1.78
31.16
58.03
74.21
78.57
70.09
52.18
29.20
4.58
-20.38
-45.15
-69.73
-93.74
-115.59
-132.67
-141.90
-141.81
-132.85
-116.73
-94.90
-67.91
-35.46
2.64
45.34
90.12
132.97
170.32
200.57
223.51
241.05
256.38
272.54
291.02
311.29
330.93
346.88
356.75
356.60
345.22
325.06
300.92
276.76
253.43
228.78
199.61
164.07
117.28
57.63
-12.21
-86.74
-161.20
-233.37
-302.83
-369.10
-430.13
-490.22
-552.22
-615.26
-675.07
-727.33
-770.08
-803.43
-828.08
-805.44
-715.54
-567.09
-394.07
-231.57
-99.27
-2.71
60.06
91.60
104.65
104.90
99.43
98.51
113.11
149.33
205.32
271.40
332.14
374.01
382.54
352.42
290.02
211.18
134.42
74.90
41.56
36.85
58.96
97.02
137.65
169.40
185.54
184.54
169.69
147.68
120.70
95.34
74.77
57.63
40.51
22.18
4.65
-8.49
-15.34
-17.53
-18.67
-24.17
-37.27
-56.26
-75.05
-87.20
-87.80
-75.74
-53.89
-26.73
0.59
23.38
38.43
43.15
34.95
12.98
-21.95
-67.07
-118.68
-170.25
-216.08
-249.65
-266.69
-267.31
-253.11
-226.27
-188.86
-143.63
-95.06
-49.21
-11.72
16.90
35.69
45.65
48.35
45.68
39.87
33.63
29.88
31.71
41.92
55.31
69.89
84.38
98.32
112.11
127.03
144.71
166.59
193.11
222.97
254.78
285.85
312.70
332.03
341.80
341.98
334.43
321.71
305.31
285.84
261.77
230.50
190.17
141.24
87.27
34.18
-11.77
-46.30
-68.00
-78.95
-83.24
-84.71
-85.23
-84.16
-79.36
-68.75
-51.70
-29.25
-4.13
20.29
40.82
54.87
60.60
56.78
42.60
17.42
-19.14
-66.57
-122.07
-179.43
-229.07
-259.99
-263.35
-235.98
-181.01
-107.36
-26.04
53.32
124.18
182.89
227.12
254.56
262.71
250.71
219.78
173.82
118.63
60.84
6.99
-37.04
-66.50
-79.10
-73.94
-53.86
-24.53
7.14
35.26
56.37
70.00
77.74
79.88
78.75
72.72
58.42
32.99
-3.10
-44.38
-80.95
-101.91
-103.39
-82.14
-46.87
-12.06
8.22
6.04
-18.15
-56.96
-99.82
-142.30
-172.24
-187.41
-190.65
-186.33
-178.35
-169.40
-161.55
-156.94
-164.81
-179.82
-203.43
-238.27
-282.40
-328.20
-365.05
-384.97
-343.04
-298.70
-250.12
-201.42
-157.67
-119.45
-84.04
-48.95
-15.93
9.12
13.29
1.72
-23.68
-65.64
-125.41
-200.73
-285.40
-371.90
-453.29
-528.74
-587.55
-584.42
-498.92
-347.02
-171.65
-11.85
114.04
205.01
264.36
303.81
330.02
341.08
335.74
317.53
294.59
274.77
262.23
255.78
255.18
257.52
255.16
243.43
223.50
201.38
183.27
172.34
167.82
168.67
173.34
177.87
179.90
177.52
171.10
160.79
145.83
125.35
99.94
71.61
41.39
10.13
-21.43
-52.48
-82.37
-107.97
-125.55
-132.49
-129.24
-119.33
-106.99
-95.53
-86.84
-82.22
-82.51
-88.35
-98.27
-108.58
-113.63
-108.20
-89.09
-57.15
-17.70
21.37
52.20
70.76
77.14
74.99
69.43
65.03
64.62
69.61
81.19
95.67
112.30
130.93
151.52
173.97
198.44
225.70
257.46
295.82
341.44
392.48
442.59
482.11
501.04
492.92
457.46
400.74
332.72
263.28
199.50
143.68
94.53
49.46
6.66
-34.27
-72.96
-109.23
-143.81
-177.80
-212.54
-248.98
-287.78
-329.60
-375.51
-426.37
-481.59
-537.44
-586.61
-620.13
-630.70
-616.14
-580.84
-534.33
-487.12
-446.63
-414.76
-388.18
-361.42
-329.77
-290.98
-245.05
-193.29
-138.04
-83.28
-35.31
-1.91
10.40
-0.29
-29.04
-64.96
-94.94
-108.68
-102.12
-77.98
-43.35
-5.93
29.33
61.22
91.26
121.37
151.92
180.92
204.79
219.97
224.58
219.35
206.84
189.86
170.46
149.46
127.58
106.69
90.41
83.14
88.16
105.84
133.31
165.79
199.10
231.68
264.98
301.79
343.53
387.76
427.78
454.55
460.29
441.58
400.80
344.82
281.79
217.82
155.40
94.24
33.42
-26.48
-82.83
-132.13
-171.89
-202.02
-224.69
-243.03
-259.50
-274.85
-288.12
-297.45
-301.32
-299.30
-292.18
-281.51
-268.83
-254.75
-238.66
-218.96
-194.06
-163.61
-129.27
-94.81
-65.02
-44.03
-33.69
-32.68
-37.02
-41.62
-42.17
-36.40
-24.44
-7.85
11.62
33.16
57.32
85.47
118.88
157.68
200.45
244.59
287.17
325.94
359.83
388.83
413.44
433.98
450.22
461.53
467.18
466.71
460.01
447.33
429.22
406.38
379.36
348.59
314.36
276.93
236.72
194.25
150.34
106.07
62.55
20.86
-17.27
-48.87
-70.30
-78.50
-73.42
-58.96
-41.81
-29.37
-27.24
-37.42
-58.15
-86.47
-120.08
-159.30
-205.38
-257.22
-309.44
-352.94
-378.16
-378.61
-354.29
-311.11
-261.88
-222.35
-203.32
-203.77
-213.54
-222.21
-221.26
-212.30
-198.59
-182.80
-165.59
-145.25
-121.53
-94.08
-63.57
-31.20
1.93
36.21
72.55
111.77
153.48
194.42
227.82
244.57
237.20
203.48
149.23
86.27
28.36
-13.43
-34.18
-35.00
-20.52
4.64
37.91
78.63
125.61
175.54
223.38
264.09
294.44
313.40
321.07
317.74
303.76
279.89
248.05
211.44
173.67
137.61
104.54
73.74
44.21
15.79
-11.00
-35.99
-59.96
-84.35
-109.84
-135.33
-159.46
-179.12
-190.09
-188.39
-172.06
-141.93
-101.25
-55.01
-8.99
27.17
45.95
44.85
27.04
-1.35
-34.48
-68.50
-102.20
-135.91
-176.75
-229.43
-292.98
-360.76
-424.83
-479.55
-522.05
-551.48
-567.54
-579.10
-593.90
-615.02
-640.24
-665.77
-689.29
-710.08
-728.42
-698.95
-598.97
-439.28
-259.59
-98.41
26.83
116.59
178.59
215.97
237.34
238.43
214.79
167.80
105.93
40.54
-18.90
-62.39
-84.02
-81.35
-63.46
-41.49
-23.63
-12.31
-5.91
-1.57
3.27
9.44
16.89
20.36
16.24
5.14
-8.19
-18.10
-21.12
-16.80
-7.30
4.61
14.48
19.96
21.76
23.04
27.31
36.56
50.81
68.25
86.65
103.26
116.73
127.48
137.39
148.51
162.14
178.28
195.82
213.33
229.63
244.40
258.29
272.55
288.54
307.35
329.63
355.30
383.33
411.55
436.74
455.34
464.40
462.51
450.20
429.38
402.71
372.73
341.69
311.78
285.22
263.91
248.67
238.49
230.40
220.24
204.20
180.01
147.33
107.47
62.53
14.95
-32.64
-77.69
-118.48
-155.08
-189.62
-225.23
-263.64
-302.72
-335.95
-354.26
-349.88
-319.96
-268.14
-203.09
-134.74
-70.55
-13.55
37.03
83.30
126.40
165.36
197.71
220.79
233.19
235.19
228.40
214.84
196.10
172.72
144.34
110.16
69.33
21.45
-32.96
-91.76
-150.60
-202.83
-240.57
-257.07
-249.05
-218.22
-170.81
-115.41
-60.03
-10.01
32.24
65.98
90.49
104.16
105.16
92.81
69.18
39.62
11.89
-5.61
-5.66
16.30
61.32
126.52
205.07
287.06
361.26
417.81
450.76
459.49
448.18
423.61
392.34
358.74
324.77
291.00
258.09
227.39
200.27
176.89
155.25
131.61
101.91
63.41
15.63
-39.79
-99.63
-159.85
-216.14
-264.41
-301.45
-325.77
-338.28
-342.30
-342.58
-343.60
-347.97
-355.62
-364.35
-371.25
-374.58
-374.64
-373.30
-372.69
-373.60
-374.80
-373.66
-367.74
-356.49
-342.22
-329.53
-323.38
-327.02
-340.26
-359.96
-381.33
-399.78
-412.21
-417.26
-414.63
-404.11
-385.29
-357.46
-320.49
-275.23
-223.60
-168.13
-111.45
-55.82
-3.03
45.38
88.98
128.06
164.10
199.92
238.87
283.84
335.95
393.71
452.27
506.03
548.18
573.30
578.98
566.19
538.58
500.75
456.46
406.46
352.50
293.92
230.05
160.74
87.03
11.73
-60.23
-122.45
-171.22
-202.40
-220.39
-235.11
-257.98
-296.10
-348.05
-403.81
-449.30
-475.26
-474.02
-448.90
-407.39
-356.23
-298.33
-233.55
-162.25
-73.46
0.52
50.96
68.58
51.84
8.66
-46.29
-97.51
-134.54
-155.12
-166.88
-174.86
-185.31
-199.32
-212.91
-219.75
-214.72
-196.26
-166.45
-131.31
-92.47
-52.22
-10.97
31.86
76.67
122.95
169.33
214.62
257.63
301.39
348.22
399.58
454.26
507.53
551.98
579.80
585.39
566.87
528.36
476.62
419.53
363.72
313.15
268.95
230.25
195.51
163.33
133.67
106.88
83.42
63.31
45.80
29.43
12.57
-5.96
-26.22
-46.97
-65.86
-80.29
-88.24
-89.09
-83.79
-74.37
-63.15
-51.89
-41.47
-32.23
-24.54
-19.14
-17.07
-19.05
-24.83
-32.86
-40.75
-46.06
-47.40
-45.00
-40.77
-37.59
-38.21
-44.18
-55.19
-69.04
-82.35
-91.72
-94.99
-91.93
-84.29
-75.01
-67.08
-62.48
-61.55
-63.24
-65.83
-67.79
-68.44
-67.92
-66.83
-65.75
-64.87
-63.98
-62.57
-60.07
-56.01
-50.16
-42.61
-33.94
-25.13
-17.30
-11.31
-7.38
-5.06
-3.44
-1.66
0.82
4.01
7.57
10.91
13.20
13.63
11.57
7.00
0.71
-5.80
-10.81
-13.27
-13.32
-12.33
-12.30
-14.79
-20.18
-27.38
-34.32
-38.87
-39.70
-36.66
-30.60
-22.84
-14.60
-6.74
0.08
5.19
7.72
6.99
2.93
-3.51
-10.49
-16.02
-18.78
-18.75
-17.00
-15.08
-14.15
-14.52
-15.78
-17.28
-18.61
-19.76
-20.86
-21.88
-22.54
-22.38
-21.21
-19.24
-17.07
-15.34
-14.49
-14.59
-15.41
-16.65
-18.03
-19.36
-20.43
-20.89
-20.39
-18.68
-15.78
-11.98
-7.76
-3.51
0.53
4.33
7.80
10.79
12.96
14.03
13.96
13.08
12.06
11.62
12.23
13.88
16.11
18.19
19.45
19.52
18.41
16.39
13.87
11.25
8.84
6.88
5.49
4.65
4.22
3.91
3.43
2.61
1.50
0.40
-0.34
-0.40
0.31
1.67
3.42
5.33
7.28
9.31
11.48
13.82
16.21
18.45
20.21
21.13
20.96
19.64
17.46
14.95
12.80
11.61
11.57
12.49
13.80
14.89
15.33
15.01
14.07
12.70
11.03
9.10
7.00
4.94
3.18
1.89
1.01
0.21
-0.93
-2.72
-5.09
-7.61
-9.66
-10.64
-10.28
-8.68
-6.21
-3.38
-0.58
1.98
4.23
6.15
7.65
8.58
8.88
8.63
8.05
7.48
7.09
6.88
6.62
6.04
4.92
3.32
1.44
-0.44
-2.04
-3.22
-3.95
-4.34
-4.57
-4.92
-5.63
-6.80
-8.26
-9.62
-10.44
-10.52
-10.03
-9.43
-9.26
-9.74
-10.66
-11.48
-11.57
-10.59
-8.61
-6.03
-3.36
-0.98
1.03
2.70
4.16
5.46
6.52
7.19
7.32
6.86
5.90
4.69
3.55
2.73
2.36
2.31
2.34
2.18
1.71
0.99
0.22
-0.39
-0.76
-0.96
-1.13
-1.42
-1.93
-2.68
-3.71
-5.15
-7.13
-9.75
-12.84
-15.98
-18.52
-19.79
-19.36
-17.24
-13.90
-10.15
-6.79
-4.34
-2.87
-2.07
-1.48
-0.79
0.02
0.71
1.05
0.95
0.61
0.41
0.66
1.42
2.49
3.56
4.41
5.00
5.47
5.92
6.31
6.45
6.12
5.21
3.86
2.36
0.97
-0.21
-1.34
-2.67
-4.31
-6.14
-7.73
-8.63
-8.56
-7.52
-5.82
-3.84
-1.84
0.17
2.46
5.42
9.26
13.85
18.63
22.75
25.33
25.89
24.63
22.55
21.12
21.76
25.25
31.33
38.69
45.36
49.41
49.67
46.36
41.48
38.65
42.27
55.97
80.71
113.46
147.45
174.08
186.13
180.48
159.25
128.33
94.71
63.39
35.95
10.94
-14.47
-43.07
-76.87
-116.98
-163.19
-212.94
-260.50
-297.70
-316.52
-312.70
-288.07
-250.16
-209.27
-174.46
-150.66
-138.23
-134.41
-135.38
-137.56
-137.96
-134.12
-124.34
-108.42
-88.09
-66.81
-48.58
-36.65
-32.67
-36.32
-45.45
-56.30
-64.06
-64.02
-53.45
-33.07
-7.36
17.01
33.95
40.49
38.04
31.41
26.56
27.95
37.24
53.39
73.70
95.10
114.97
131.21
142.07
146.23
143.21
133.92
120.74
106.95
95.51
87.85
83.41
80.07
75.34
67.69
57.18
45.15
33.31
22.63
12.86
2.79
-8.92
-22.89
-38.66
-55.12
-71.21
-86.54
-101.32
-115.70
-128.97
-139.24
-143.93
-140.98
-130.07
-113.11
-93.66
-75.68
-61.96
-53.33
-48.80
-46.43
-44.51
-42.28
-40.10
-38.85
-39.37
-41.80
-45.59
-49.77
-53.56
-56.70
-59.66
-63.45
-69.19
-77.69
-89.18
-103.02
-117.75
-131.33
-141.63
-147.01
-146.76
-141.13
-130.99
-117.17
-99.98
-79.15
-54.03
-24.31
9.59
46.36
84.18
121.25
156.41
189.50
221.48
254.32
290.51
332.44
381.30
436.08
492.86
545.17
585.39
606.98
606.56
585.11
547.34
499.83
448.61
397.45
347.29
296.92
244.52
189.20
132.12
76.85
28.71
-6.75
-25.76
-28.17
-18.02
-2.62
9.76
12.49
2.15
-21.35
-55.80
-98.01
-144.51
-191.40
-234.29
-268.63
-290.94
-299.96
-297.15
-285.83
-269.67
-251.02
-230.38
-206.95
-180.07
-150.25
-119.47
-90.54
-65.95
-47.03
-33.81
-25.31
-20.09
-16.70
-13.83
-10.37
-5.52
1.05
8.94
17.00
23.54
26.84
25.73
19.97
10.26
-1.97
-15.17
-28.04
-39.80
-50.20
-59.24
-66.95
-73.19
-77.54
-79.41
-78.28
-73.96
-66.79
-57.76
-48.26
-39.76
-33.25
-28.96
-26.35
-24.52
-22.77
-20.96
-19.50
-19.00
-19.83
-21.84
-24.42
-26.89
-28.79
-29.99
-30.56
-30.67
-30.40
-29.88
-29.41
-29.43
-30.43
-32.72
-36.25
-40.69
-45.51
-50.20
-54.36
-57.66
-59.71
-59.98
-57.94
-53.16
-45.59
-35.61
-23.97
-11.57
0.64
11.92
21.73
29.72
35.77
39.97
42.59
44.06
44.86
45.40
45.93
46.48
47.02
47.55
48.10
48.64
49.04
49.01
48.16
46.16
42.96
38.82
34.28
29.90
26.02
22.59
19.18
15.10
9.73
2.80
-5.50
-14.53
-23.33
-30.94
-36.65
-40.13
-41.50
-41.11
-39.40
-36.76
-33.53
-30.08
-26.82
-24.20
-22.63
-22.40
-23.61
-26.08
-29.48
-33.43
-37.67
-42.25
-47.50
-53.90
-61.72
-70.70
-79.99
-88.40
-94.91
-99.26
-102.19
-105.25
-110.19
-118.29
-129.92
-144.31
-159.62
-173.23
-182.09
-183.37
-175.01
-156.25
-127.80
-91.48
-49.59
-4.03
44.22
95.07
148.49
203.50
257.31
305.52
343.28
367.16
376.57
374.06
364.24
351.91
340.34
330.61
322.32
314.82
308.25
303.62
301.83
302.65
304.16
303.18
296.54
282.33
260.66
233.54
204.08
175.21
148.64
124.37
100.98
76.83
51.31
25.66
2.83
-13.77
-21.93
-21.91
-16.91
-12.16
-13.36
-24.70
-47.64
-80.51
-119.19
-158.46
-193.54
-221.06
-239.45
-248.60
-249.31
-242.83
-230.62
-214.37
-195.91
-176.89
-158.18
-139.79
-120.98
-100.94
-79.52
-57.46
-36.25
-17.50
-2.47
8.21
14.49
16.78
15.95
13.28
10.38
8.76
9.47
12.69
17.89
24.10
30.48
36.69
42.88
49.54
57.17
66.18
76.67
88.33
100.29
111.11
119.17
123.26
123.35
120.92
118.63
119.35
125.02
135.89
150.41
165.79
178.87
186.98
188.38
182.36
169.01
148.89
122.91
92.06
57.27
19.34
-21.20
-64.06
-108.96
-155.14
-200.99
-243.75
-279.98
-306.43
-321.31
-325.02
-320.20
-310.61
-299.72
-289.54
-280.36
-271.37
-261.63
-250.84
-239.36
-227.72
-216.04
-203.75
-190.03
-174.38
-157.07
-139.28
-122.52
-108.03
-96.29
-86.99
-79.26
-72.30
-65.61
-59.23
-53.47
-48.77
-45.49
-43.77
-43.59
-44.65
-46.48
-48.40
-49.76
-50.12
-49.56
-48.82
-49.17
-52.13
-58.88
-69.83
-84.20
-100.00
-114.30
-123.83
-125.86
-119.26
-105.18
-86.93
-68.97
-55.35
-48.09
-46.45
-47.35
-46.86
-41.98
-31.79
-17.58
-1.93
12.65
24.87
35.11
45.11
57.14
73.22
94.39
120.35
149.36
178.42
203.66
221.06
227.41
221.15
202.86
175.14
142.03
108.12
77.66
53.86
38.27
30.62
29.09
30.99
33.73
35.65
36.38
36.56
37.16
38.69
40.91
43.02
44.24
44.31
43.70
43.30
44.14
47.27
53.69
64.24
79.28
98.27
119.58
140.69
158.97
172.41
180.27
183.10
182.35
179.68
176.37
173.27
170.88
169.70
170.28
173.00
177.84
184.25
191.32
198.24
204.70
211.00
217.95
226.27
235.95
245.86
253.57
255.79
249.39
232.74
206.81
175.18
142.86
114.30
91.39
72.75
54.84
33.93
8.08
-22.11
-54.39
-86.65
-118.32
-150.35
-183.93
-218.90
-253.13
-283.12
-305.40
-317.76
-319.53
-311.14
-293.45
-267.48
-234.26
-195.15
-151.93
-106.78
-62.27
-21.10
14.05
40.72
56.99
62.11
56.85
43.47
24.92
4.07
-16.77
-35.70
-51.21
-62.11
-68.09
-70.47
-72.34
-78.09
-92.07
-116.99
-152.72
-195.95
-241.06
-281.92
-313.92
-335.17
-346.35
-349.58
-347.01
-340.14
-329.91
-317.24
-303.73
-291.00
-279.42
-267.08
-249.83
-223.23
-185.40
-139.25
-92.26
-53.71
-30.47
-23.83
-29.19
-38.78
-45.58
-46.50
-42.69
-37.52
-33.72
-31.57
-29.09
-23.87
-14.76
-2.54
10.91
23.98
36.27
48.61
62.14
76.78
90.12
97.47
93.14
72.75
35.57
-14.35
-68.82
-117.91
-153.01
-169.30
-166.31
-146.69
-114.32
-72.93
-26.13
21.69
64.87
97.13
113.64
113.07
98.64
77.41
58.03
47.65
49.46
61.44
77.41
89.95
93.92
89.03
80.26
75.40
80.95
98.22
121.73
140.89
144.30
124.72
82.08
23.55
-39.51
-96.06
-139.19
-167.64
-184.58
-194.68
-201.23
-204.68
-203.12
-194.30
-177.66
-155.17
-130.49
-107.16
-86.87
-68.93
-51.07
-31.13
-8.26
16.63
41.89
66.51
91.15
118.45
151.78
193.02
240.41
287.77
325.98
346.22
343.68
320.04
283.04
243.73
212.43
195.77
195.81
211.45
240.73
282.37
335.50
398.08
465.08
528.10
577.08
603.31
602.52
576.29
531.41
477.05
421.52
369.76
322.76
278.79
235.19
190.09
143.16
95.16
47.25
0.11
-46.16
-92.00
-138.08
-184.74
-231.95
-279.59
-328.00
-377.96
-430.07
-483.41
-534.52
-577.19
-604.04
-609.21
-590.98
-552.85
-502.33
-447.98
-396.26
-349.76
-307.58
-267.21
-226.62
-185.24
-143.57
-102.01
-59.74
-14.89
34.30
87.69
142.21
191.99
230.45
252.79
257.99
249.29
232.75
214.62
198.84
186.07
174.39
161.31
145.63
128.23
111.35
97.08
85.99
76.85
67.32
55.34
40.20
22.89
5.69
-8.86
-18.95
-23.96
-24.42
-21.54
-16.73
-11.21
-5.97
-1.90
0.29
0.20
-1.89
-4.96
-7.38
-7.49
-4.31
1.98
9.96
17.59
22.98
25.16
24.43
22.11
19.93
19.26
20.75
24.22
29.00
34.34
39.63
44.42
48.29
50.80
51.45
49.90
46.21
41.05
35.66
31.58
30.29
32.77
39.16
48.71
60.04
71.30
80.61
86.38
87.71
84.78
78.96
72.65
68.55
68.66
73.27
80.84
88.61
93.74
94.70
91.58
85.73
78.79
71.93
65.50
59.63
54.66
51.19
49.54
48.90
47.12
41.44
29.92
12.72
-7.73
-27.96
-45.23
-58.67
-69.24
-78.41
-86.79
-93.82
-98.56
-100.89
-102.22
-104.83
-110.57
-119.67
-130.58
-140.89
-148.79
-153.72
-156.20
-157.00
-156.40
-153.92
-149.04
-141.68
-132.37
-122.27
-112.74
-105.20
-100.91
-100.66
-104.32
-110.65
-117.46
-122.37
-123.73
-121.24
-115.86
-109.07
-101.85
-93.99
-84.37
-71.72
-55.63
-37.08
-18.17
-1.32
11.71
20.44
25.74
29.33
33.08
38.17
44.64
51.49
57.25
60.62
61.15
59.39
56.45
53.51
51.25
49.63
48.17
46.30
43.77
40.59
36.87
32.36
26.43
18.32
7.66
-5.03
-18.47
-31.03
-41.50
-49.48
-55.31
-59.38
-61.56
-60.98
-56.48
-47.46
-34.58
-19.72
-5.34
6.61
15.36
21.42
25.97
30.13
34.29
37.99
40.41
40.81
39.06
35.64
31.42
27.20
23.44
20.17
17.10
13.68
9.29
3.38
-4.33
-13.55
-23.19
-31.46
-36.42
-36.70
-32.21
-24.40
-15.79
-9.04
-5.83
-6.21
-8.72
-11.19
-11.88
-10.22
-6.89
-3.17
-0.03
2.53
5.44
9.85
16.31
24.16
31.79
37.29
39.37
37.72
33.02
26.54
19.55
13.02
7.52
3.28
0.49
-0.74
-0.62
0.42
1.90
3.47
5.09
6.96
9.36
12.56
16.68
21.12
25.04
27.72
28.77
28.22
26.25
23.02
18.90
14.49
9.97
5.45
1.02
-3.31
-7.72
-12.87
-19.77
-29.24
-39.48
-48.22
-53.08
-53.07
-48.65
-40.81
-29.99
-15.99
0.48
20.95
45.15
71.02
95.30
115.02
128.83
137.53
141.65
142.78
142.36
140.27
135.87
129.04
120.95
113.33
107.15
101.74
95.65
88.12
79.97
73.82
72.41
76.20
81.89
82.95
72.75
48.09
10.84
-33.38
-77.87
-118.25
-154.27
-189.21
-227.36
-270.95
-318.09
-363.03
-398.31
-417.57
-417.89
-400.72
-370.75
-333.82
-295.20
-258.65
-226.74
-201.07
-182.03
-167.92
-154.55
-136.10
-107.43
-66.85
-17.54
33.18
76.91
107.69
124.55
131.83
136.77
145.92
161.71
181.18
197.48
203.33
194.85
173.55
145.49
117.98
95.92
79.83
66.64
52.28
34.49
13.99
-6.54
-24.60
-39.36
-51.84
-63.72
-75.91
-87.91
-98.18
-104.92
-107.08
-104.85
-99.80
-94.50
-91.69
-93.25
-99.21
-107.46
-114.27
-115.74
-109.38
-95.04
-74.80
-52.05
-30.06
-11.12
3.71
14.32
21.09
24.76
26.41
27.48
29.53
33.77
40.65
49.77
60.53
72.64
86.61
103.67
125.14
151.91
184.33
222.68
267.37
318.41
374.07
429.53
476.88
507.02
512.93
492.59
449.98
393.38
331.82
271.68
215.31
162.15
111.11
62.64
18.96
-17.36
-45.28
-66.03
-82.39
-96.96
-110.78
-123.24
-132.96
-139.43
-143.72
-148.13
-154.83
-164.65
-176.52
-188.20
-197.48
-203.21
-205.65
-205.97
-205.43
-204.62
-203.18
-199.97
-193.68
-183.32
-168.78
-150.89
-131.29
-111.88
-94.22
-79.06
-66.19
-54.68
-43.34
-31.11
-17.27
-1.46
16.41
36.06
56.67
76.79
94.59
108.21
116.40
118.80
115.87
108.70
98.49
86.37
73.23
59.73
46.41
33.68
21.81
10.77
-0.00
-11.78
-26.57
-46.69
-73.74
-107.65
-146.01
-184.21
-216.48
-237.45
-243.49
-233.48
-208.88
-173.40
-132.51
-92.63
-60.13
-39.76
-33.28
-38.65
-50.53
-62.00
-67.04
-62.72
-50.14
-33.99
-20.84
-16.69
-24.93
-45.06
-72.77
-101.32
-123.68
-134.54
-131.80
-116.66
-92.52
-63.39
-32.49
-1.51
29.21
60.07
91.70
124.75
159.95
198.12
239.82
284.58
330.30
372.92
407.07
427.59
431.39
418.76
393.48
361.15
326.79
292.74
258.13
220.26
177.11
129.41
81.23
38.37
5.89
-14.12
-23.07
-24.68
-22.81
-19.68
-15.32
-8.55
1.64
14.77
28.68
40.20
46.48
46.11
39.61
29.08
17.29
6.47
-2.39
-9.62
-16.30
-23.46
-31.36
-39.37
-46.23
-50.73
-52.12
-50.33
-45.74
-38.88
-30.19
-19.99
-8.67
3.00
13.89
22.66
28.17
29.96
28.45
24.71
20.13
15.78
12.12
8.96
5.78
2.21
-1.71
-5.56
-8.83
-11.23
-12.89
-14.23
-15.62
-17.18
-18.64
-19.59
-19.69
-18.95
-17.70
-16.41
-15.49
-15.12
-15.19
-15.46
-15.66
-15.46
-14.51
-12.33
-8.43
-2.43
5.79
15.91
27.22
38.71
49.39
58.52
65.70
71.00
74.87
77.96
81.03
84.73
89.50
95.52
102.76
111.11
120.43
130.52
141.03
151.46
161.06
169.01
174.48
176.72
175.17
169.58
160.12
147.54
133.13
118.46
105.03
93.73
84.71
77.46
71.22
65.43
59.95
54.91
50.21
45.17
38.48
28.54
14.19
-4.73
-27.09
-50.90
-74.00
-94.98
-113.70
-131.26
-149.60
-170.72
-196.22
-226.66
-261.30
-297.78
-332.19
-359.76
-376.22
-379.49
-370.81
-354.79
-337.75
-325.10
-319.11
-318.20
-318.13
-314.46
-304.96
-290.48
-274.25
-260.00
-250.18
-245.13
-243.39
-242.66
-240.79
-236.33
-228.51
-217.14
-202.47
-185.14
-166.08
-146.30
-126.77
-108.28
-91.57
-77.35
-66.17
-58.14
-52.66
-48.44
-43.97
-38.12
-30.77
-22.81
-15.61
-10.27
-6.98
-4.99
-3.01
0.04
4.52
10.03
15.69
20.75
24.94
28.65
32.56
37.31
43.07
49.47
55.80
61.47
66.35
70.90
76.06
82.80
91.72
102.71
115.00
127.34
138.38
147.12
153.06
156.40
157.77
157.97
157.60
156.81
155.31
152.55
147.99
141.50
133.35
124.21
114.91
106.18
98.50
92.04
86.59
81.57
76.03
68.83
58.90
45.65
29.24
10.70
-8.31
-26.12
-41.54
-54.16
-64.26
-72.30
-78.42
-82.19
-82.72
-79.25
-71.65
-60.71
-47.96
-35.14
-23.61
-14.09
-6.64
-1.00
3.07
5.68
6.88
6.84
5.99
5.01
4.56
5.08
6.64
8.95
11.49
13.77
15.39
16.13
15.98
14.99
13.24
10.80
7.62
3.58
-1.52
-7.99
-16.17
-26.26
-38.24
-51.56
-65.10
-77.29
-86.42
-91.10
-90.63
-85.15
-75.45
-62.70
-48.06
-32.56
-17.03
-2.11
11.71
24.20
35.31
45.15
53.82
61.30
67.44
72.15
75.52
77.88
79.67
81.13
82.06
81.78
79.41
74.30
66.36
56.17
44.81
33.51
23.27
14.67
7.83
2.60
-1.28
-4.00
-5.58
-5.90
-4.77
-2.11
1.90
6.74
11.62
15.74
18.63
20.46
21.99
24.22
27.82
32.85
38.50
43.53
46.72
47.49
46.04
43.17
39.83
36.63
33.59
30.18
25.77
20.02
13.14
5.89
-0.84
-6.44
-10.83
-14.43
-17.95
-21.94
-26.60
-31.84
-37.40
-43.10
-48.82
-54.34
-59.11
-62.28
-62.79
-59.80
-53.00
-42.85
-30.54
-17.66
-5.80
3.83
10.71
14.99
17.40
18.80
19.94
21.21
22.75
24.65
27.19
30.73
35.49
41.23
47.22
52.42
55.99
57.57
57.29
55.40
51.94
46.65
39.43
30.94
22.84
17.34
16.08
18.90
23.71
27.44
27.80
24.87
21.32
21.38
28.76
45.06
69.07
97.40
125.54
148.84
163.20
165.47
154.44
131.60
101.32
70.01
44.33
29.15
26.28
34.25
49.12
65.48
77.64
80.49
70.23
45.11
5.59
-46.01
-106.46
-172.60
-241.55
-309.96
-373.14
-425.08
-459.77
-473.41
-466.47
-443.52
-411.44
-376.58
-342.32
-308.41
-272.30
-231.77
-187.12
-141.43
-98.97
-62.79
-33.22
-7.92
16.39
41.72
67.43
90.11
105.13
108.36
97.37
71.85
33.53
-14.13
-65.96
-115.51
-155.99
-181.72
-189.78
-180.79
-158.34
-127.21
-91.59
-53.54
-12.53
33.59
86.81
146.74
209.54
268.40
315.70
345.76
356.67
350.25
330.03
299.18
259.70
213.01
161.53
109.18
60.50
18.61
-16.24
-46.31
-74.20
-100.23
-121.42
-132.60
-129.31
-110.05
-77.01
-34.61
12.85
63.23
116.98
175.78
240.01
306.75
369.49
420.10
452.32
464.66
460.96
448.27
432.98
417.73
400.86
378.37
347.30
307.76
262.58
215.03
166.75
117.59
67.33
18.00
-25.38
-56.36
-69.85
-64.35
-42.56
-10.03
27.09
63.59
95.79
121.17
138.00
145.42
143.85
135.03
121.52
105.66
88.67
70.52
50.64
28.74
5.09
-19.54
-44.68
-70.85
-99.44
-132.44
-171.86
-219.39
-275.89
-340.52
-410.02
-478.06
-535.89
-574.74
-588.64
-576.35
-541.78
-492.19
-435.32
-377.04
-320.25
-265.37
-212.18
-160.79
-111.57
-64.47
-18.18
30.00
83.24
144.12
213.52
288.91
364.02
430.46
479.79
506.10
507.83
487.37
450.80
406.45
360.69
316.92
276.45
239.28
204.94
172.79
140.52
106.54
71.95
37.12
2.04
-32.28
-64.63
-94.37
-121.95
-151.24
-185.42
-223.72
-267.00
-316.38
-369.85
-421.95
-464.79
-490.19
-495.57
-481.06
-446.17
-396.26
-339.28
-280.27
-220.45
-158.32
-74.06
33.92
130.82
203.47
252.45
277.89
283.65
276.50
263.38
248.75
230.08
203.71
171.39
134.62
96.14
60.57
31.72
10.35
-6.10
-24.42
-50.17
-82.30
-118.54
-154.89
-186.73
-210.30
-224.04
-228.31
-226.35
-222.10
-215.00
-202.39
-178.34
-138.82
-82.48
-11.29
70.57
156.12
233.75
293.21
327.32
337.79
326.97
299.86
262.90
223.93
188.65
153.82
114.80
70.06
28.82
-4.69
-29.29
-47.76
-62.89
-77.92
-103.94
-149.20
-214.14
-284.08
-352.43
-418.30
-485.49
-554.70
-579.19
-527.23
-399.36
-273.70
-165.65
-74.79
16.32
108.58
200.16
287.73
355.15
386.42
373.59
328.01
259.86
180.17
98.40
24.22
-36.56
-93.96
-159.92
-240.05
-324.66
-407.08
-484.43
-558.80
-632.20
-672.64
-660.64
-594.34
-490.24
-366.42
-241.05
-128.00
-37.21
28.18
71.23
91.68
93.87
83.44
69.29
57.19
49.88
47.93
52.38
64.92
83.17
102.03
119.25
136.28
155.05
176.68
201.33
229.17
260.60
293.70
327.16
361.46
398.58
439.88
483.66
524.44
553.89
563.23
544.94
496.45
421.83
330.73
235.35
146.94
73.10
16.78
-23.09
-50.25
-68.44
-79.48
-83.16
-78.43
-65.43
-46.62
-27.15
-13.40
-10.57
-20.87
-42.82
-72.63
-105.88
-139.29
-171.24
-201.78
-231.79
-262.41
-294.95
-330.63
-370.36
-413.71
-457.87
-496.91
-523.48
-531.20
-516.98
-482.24
-432.24
-374.10
-314.24
-256.74
-202.16
-150.27
-101.25
-55.47
-12.60
28.95
71.54
117.27
166.80
221.13
278.30
334.46
386.20
432.58
475.09
516.10
557.37
599.23
644.20
691.41
736.63
774.14
798.70
806.44
795.10
764.52
716.93
661.05
602.58
541.88
475.47
400.03
315.35
225.97
140.56
40.01
-71.74
-177.53
-261.45
-320.48
-361.17
-390.83
-412.27
-424.97
-428.31
-418.80
-396.94
-367.52
-335.03
-301.05
-265.90
-230.55
-198.45
-174.67
-160.01
-154.16
-155.53
-162.35
-168.15
-165.93
-151.49
-126.44
-97.53
-71.38
-54.15
-50.06
-59.61
-79.47
-106.07
-132.84
-153.24
-162.93
-162.22
-152.01
-134.76
-115.49
-99.72
-94.59
-104.09
-126.91
-156.55
-183.77
-201.14
-206.96
-204.73
-199.56
-194.69
-188.98
-178.86
-161.22
-135.72
-104.58
-71.42
-39.34
-9.70
17.01
40.24
58.23
68.71
70.71
66.18
59.70
56.36
59.75
70.51
86.67
104.86
122.12
137.23
150.97
165.64
182.87
202.60
222.92
240.73
252.77
256.69
251.98
240.04
224.31
207.69
191.84
176.95
162.58
148.47
135.04
123.17
113.54
106.81
101.19
93.17
78.84
55.82
24.55
-11.88
-49.05
-89.65
-132.06
-172.41
-205.54
-227.71
-237.46
-235.53
-225.08
-211.62
-201.19
-196.16
-195.68
-195.57
-190.19
-174.77
-147.48
-110.34
-68.16
-26.18
13.02
43.36
61.73
67.50
62.22
48.85
30.95
12.23
-3.41
-11.52
-8.75
6.79
33.59
66.57
98.39
122.09
133.97
135.11
130.68
126.55
126.71
130.93
135.37
135.23
127.82
114.09
98.10
84.83
77.51
76.83
80.91
86.95
92.72
97.45
101.43
104.98
107.37
106.64
100.43
86.76
64.90
35.57
0.74
-36.74
-73.32
-105.14
-128.52
-140.80
-141.61
-133.38
-121.05
-110.48
-106.46
-111.10
-123.64
-141.53
-162.10
-183.71
-205.74
-227.82
-248.88
-267.20
-280.91
-288.75
-290.43
-285.90
-274.45
-254.27
-223.35
-181.31
-131.20
-79.96
-36.30
-7.30
5.00
4.46
-0.88
-2.78
3.51
17.70
35.75
52.98
66.99
78.50
89.86
102.57
115.63
125.82
129.64
125.59
115.08
101.70
89.37
80.54
75.60
73.54
72.95
72.96
73.24
73.53
73.17
71.22
67.07
60.96
54.06
47.72
42.79
38.97
34.98
29.17
20.39
8.55
-5.40
-20.06
-34.15
-47.00
-58.58
-69.23
-79.13
-88.07
-95.38
-100.09
-101.14
-97.66
-89.02
-75.10
-56.37
-33.72
-8.54
17.36
41.66
61.37
72.92
72.91
59.29
32.68
-2.87
-40.48
-72.23
-91.56
-95.32
-84.35
-62.56
-34.96
-5.77
22.62
49.42
74.55
97.57
117.36
132.50
142.13
146.63
147.74
147.93
149.41
153.43
159.96
167.96
176.07
183.20
188.85
193.20
196.66
199.33
200.50
198.37
190.39
174.11
148.34
113.94
74.11
33.72
-1.80
-27.61
-40.37
-38.70
-23.45
2.43
34.47
67.66
97.73
122.00
139.47
150.31
154.82
152.82
143.62
126.86
103.14
74.43
43.56
13.15
-15.45
-42.63
-70.33
-101.18
-137.32
-179.10
-224.12
-267.08
-300.80
-318.33
-315.31
-291.57
-251.34
-201.59
-149.66
-100.95
-57.89
-20.45
12.58
42.12
68.20
90.46
109.03
125.30
141.80
161.35
185.88
215.31
247.26
277.43
301.04
314.04
314.70
303.91
285.00
262.50
240.25
219.76
199.63
176.21
145.61
106.29
60.93
16.35
-19.24
-40.14
-46.30
-43.82
-42.53
-52.22
-78.90
-123.47
-182.56
-250.79
-323.31
-395.52
-462.25
-517.37
-554.90
-570.97
-565.43
-541.84
-505.81
-464.32
-421.96
-380.09
-337.89
-294.98
-253.05
-215.63
-185.62
-163.58
-149.79
-142.53
-138.56
-134.01
-126.00
-113.10
-95.54
-74.20
-51.03
-32.72
-26.36
-36.13
-61.14
-96.25
-134.82
-171.86
-204.50
-213.08
-186.54
-127.66
-53.09
18.07
75.36
118.74
154.14
190.02
232.84
280.92
327.45
364.34
386.03
391.65
388.35
380.71
373.43
369.54
366.80
360.70
347.03
323.44
289.83
247.50
198.18
145.29
93.38
45.71
5.50
-20.76
-26.89
-9.92
27.90
78.71
132.04
177.47
206.93
217.62
212.55
198.24
181.93
168.48
158.68
150.56
141.14
128.30
112.37
95.99
82.10
72.38
66.30
61.51
55.39
46.42
34.71
21.78
9.55
-0.91
-9.65
-17.65
-26.14
-35.86
-46.54
-57.20
-66.65
-74.39
-81.15
-88.75
-99.46
-115.16
-136.90
-164.68
-197.45
-233.04
-268.31
-299.61
-323.71
-338.80
-345.06
-344.27
-338.68
-329.72
-317.50
-301.25
-280.50
-256.03
-230.02
-205.10
-183.23
-164.94
-149.55
-135.91
-123.23
-111.37
-100.42
-90.40
-80.93
-71.47
-61.83
-52.39
-44.06
-37.80
-34.03
-32.42
-32.14
-32.26
-32.45
-33.06
-34.89
-38.58
-44.14
-50.55
-55.97
-58.16
-55.04
-45.26
-28.58
-6.12
19.68
45.46
67.66
83.48
91.72
93.20
90.34
86.21
83.42
83.23
85.53
89.25
93.17
96.45
98.81
100.23
100.45
98.72
93.88
84.84
71.11
53.22
32.63
11.29
-9.10
-27.72
-44.72
-60.87
-76.64
-91.45
-103.36
-109.76
-108.54
-99.30
-83.70
-64.82
-45.83
-28.80
-14.33
-2.10
8.05
15.47
18.86
17.10
10.16
-0.71
-13.64
-27.29
-41.56
-57.56
-76.69
-99.49
-125.07
-151.17
-174.82
-193.20
-204.27
-207.16
-202.27
-190.99
-175.18
-156.77
-137.30
-117.96
-99.76
-83.63
-70.25
-59.65
-50.75
-41.35
-28.85
-11.21
12.03
39.57
69.01
97.94
124.98
150.10
174.23
198.64
224.47
252.54
283.36
317.11
353.19
389.90
424.23
452.32
470.45
476.17
469.11
450.95
424.72
393.65
360.27
325.95
291.16
255.92
220.28
184.31
147.93
110.77
72.12
31.38
-11.23
-53.95
-93.05
-123.28
-139.24
-137.23
-116.97
-82.19
-39.63
3.13
39.99
67.55
85.44
95.32
99.45
99.66
97.18
93.06
88.61
85.27
84.00
85.17
88.55
93.70
100.33
108.42
118.24
130.02
143.59
157.71
170.72
181.11
187.95
191.14
191.56
191.07
192.05
196.34
202.86
208.94
211.40
207.66
196.26
177.10
151.58
122.41
92.06
59.30
22.53
-18.54
-62.37
-106.75
-150.41
-193.54
-237.03
-283.00
-337.23
-401.94
-472.96
-540.58
-594.76
-630.11
-647.27
-650.60
-646.99
-647.65
-658.93
-679.98
-704.60
-726.78
-744.55
-759.14
-771.54
-744.05
-655.06
-511.50
-347.65
-199.94
-87.71
-12.50
29.33
56.49
81.82
105.92
125.68
139.01
148.03
156.90
168.38
184.61
208.12
238.82
270.67
297.63
316.18
326.10
328.12
322.15
308.36
289.41
269.10
249.71
233.48
221.98
215.85
214.60
217.40
224.44
237.15
255.33
275.01
290.14
295.28
288.13
270.30
246.27
221.55
200.78
186.13
177.41
173.57
173.45
175.83
178.95
180.40
177.93
170.34
157.83
141.96
124.64
107.13
89.37
70.08
47.40
19.80
-13.18
-50.59
-90.01
-128.21
-161.85
-188.40
-206.52
-216.11
-218.07
-213.91
-205.78
-196.07
-187.15
-180.88
-178.08
-178.09
-179.01
-178.17
-173.12
-162.51
-146.34
-125.74
-102.39
-78.15
-54.58
-32.83
-13.63
2.62
15.32
23.99
28.55
29.78
29.40
29.94
33.97
43.34
58.37
76.87
95.63
111.71
123.43
130.52
133.88
135.13
135.97
137.26
136.90
131.88
119.61
98.84
69.78
33.62
-7.84
-52.58
-98.62
-146.43
-194.97
-240.38
-276.71
-298.97
-305.89
-300.31
-287.67
-273.37
-264.27
-263.60
-270.24
-280.41
-290.89
-300.64
-309.89
-318.48
-304.33
-255.32
-175.68
-84.06
0.21
66.38
112.29
140.86
157.08
166.25
169.18
166.18
158.77
150.44
144.46
143.03
147.27
157.21
172.13
187.35
198.12
201.64
198.12
189.86
179.83
170.57
160.39
147.74
128.80
100.88
64.04
21.51
-21.55
-59.80
-89.12
-107.25
-113.28
-108.59
-94.93
-74.53
-49.98
-24.26
-0.33
19.33
33.35
42.22
47.64
52.66
59.74
69.39
79.82
87.58
88.97
81.68
66.05
42.72
17.09
-3.44
-13.93
-14.64
-9.23
-1.48
6.57
14.66
23.17
32.67
42.37
50.78
56.70
60.07
61.89
63.63
66.51
71.03
77.36
84.26
90.18
93.89
95.00
94.14
92.48
91.21
91.29
93.66
97.80
102.96
108.32
113.40
118.20
123.06
128.46
134.89
142.90
151.48
159.27
164.55
165.63
161.14
150.16
132.04
105.53
75.61
44.22
12.22
-20.42
-54.21
-89.44
-125.70
-161.69
-195.60
-225.57
-251.51
-274.28
-295.65
-317.97
-343.80
-375.67
-415.49
-463.50
-516.99
-570.50
-615.68
-643.74
-648.70
-629.74
-591.57
-542.40
-490.65
-441.98
-398.82
-360.75
-326.42
-295.19
-267.33
-243.36
-223.03
-204.96
-187.29
-168.87
-149.72
-130.99
-114.49
-101.57
-92.41
-85.81
-79.65
-71.69
-60.51
-45.91
-28.86
-10.96
6.36
22.41
37.38
52.01
66.93
82.13
96.69
109.03
117.48
120.98
119.62
114.62
107.87
101.34
96.34
93.32
92.06
92.21
93.77
97.34
103.94
114.55
129.74
149.69
174.20
202.72
234.04
265.65
293.68
313.57
321.47
315.59
296.83
268.10
232.80
193.43
151.06
106.10
59.53
13.87
-27.05
-59.14
-79.53
-87.44
-84.04
-71.58
-52.49
-28.88
-2.65
24.23
49.59
71.21
87.37
97.32
101.36
100.72
97.20
92.73
89.11
87.87
90.21
97.28
109.74
127.89
151.89
181.75
217.05
255.97
295.07
329.45
354.29
366.23
364.46
351.24
331.15
309.61
290.84
276.56
265.55
255.25
242.59
225.73
205.24
184.12
166.28
153.93
146.46
140.31
132.90
122.39
108.56
93.16
79.62
71.56
70.59
76.29
86.26
101.61
122.56
147.23
172.13
194.18
211.52
222.64
227.69
227.45
230.23
242.59
265.91
296.46
329.28
360.46
386.29
405.30
415.71
424.48
435.73
447.87
455.24
453.79
443.69
426.94
408.25
338.32
200.27
17.12
-163.28
-304.60
-396.80
-440.70
-457.84
-461.51
-459.20
-446.65
-421.83
-387.70
-352.05
-321.91
-300.24
-287.60
-280.86
-277.39
-269.10
-251.60
-226.46
-199.73
-176.98
-160.38
-150.08
-143.33
-137.93
-128.80
-113.74
-94.67
-76.34
-62.86
-55.78
-54.87
-57.88
-63.15
-68.14
-72.30
-77.29
-85.90
-99.91
-119.04
-141.53
-164.86
-187.28
-207.85
-227.12
-247.03
-269.86
-297.13
-329.62
-367.68
-410.57
-455.42
-496.66
-526.91
-539.86
-532.92
-508.38
-472.13
-430.65
-387.66
-342.73
-292.79
-235.52
-172.97
-111.03
-56.52
-13.78
17.37
40.97
62.70
86.92
115.13
144.30
171.08
194.73
217.18
240.66
265.31
288.49
305.87
313.17
303.49
273.69
226.76
170.42
113.15
61.32
18.75
-12.83
-33.67
-52.83
-78.66
-113.58
-153.62
-192.60
-226.06
-252.08
-270.86
-284.27
-304.24
-340.53
-394.73
-461.11
-532.95
-607.12
-682.97
-759.26
-775.59
-695.95
-531.22
-331.56
-146.01
0.20
101.50
163.48
197.07
214.43
216.36
201.52
173.38
140.00
110.22
89.56
80.33
82.56
94.67
107.11
112.31
110.10
102.78
95.71
92.38
93.93
99.90
108.86
114.46
111.62
99.55
81.52
62.51
46.13
34.33
27.83
26.46
27.22
27.23
25.25
21.74
18.12
15.34
14.00
14.55
17.34
21.66
26.59
31.55
36.29
41.22
46.92
54.31
64.64
79.06
98.21
121.81
148.71
177.45
206.89
236.52
266.57
297.61
330.22
364.83
401.97
442.46
486.79
533.97
580.24
619.03
642.31
643.48
619.97
574.29
512.87
443.33
371.95
302.74
238.08
180.38
132.65
97.43
74.76
60.74
48.12
29.11
-1.12
-42.23
-88.87
-133.07
-167.89
-190.20
-201.50
-206.58
-211.03
-219.16
-232.87
-251.74
-273.67
-295.66
-314.34
-326.42
-329.32
-322.02
-305.67
-283.59
-260.36
-240.54
-227.24
-221.39
-221.96
-226.64
-232.34
-235.82
-233.67
-222.72
-200.92
-168.19
-126.93
-82.10
-40.15
-6.93
14.26
24.18
27.57
31.56
43.52
68.86
110.02
166.34
234.53
308.91
381.77
443.96
486.57
503.35
492.75
458.78
409.68
355.01
302.38
255.74
215.51
180.17
148.09
118.10
89.24
60.41
30.39
-1.88
-36.42
-72.36
-108.70
-145.36
-184.42
-228.99
-280.21
-334.61
-384.03
-417.72
-426.55
-406.76
-360.86
-297.27
-226.63
-158.02
-97.30
-48.27
-13.43
6.28
13.22
14.70
19.99
37.44
71.60
121.37
179.00
233.21
273.64
294.77
297.46
284.82
259.43
222.43
174.59
116.06
48.62
-22.37
-93.14
-147.50
-168.56
-153.86
-118.94
-86.24
-74.66
-92.08
-134.40
-188.67
-238.85
-272.69
-284.75
-279.26
-256.94
-219.48
-170.24
-114.19
-56.20
-0.98
48.02
87.37
116.12
137.27
155.80
178.57
210.32
254.83
310.33
370.99
423.25
452.32
448.37
408.60
338.10
247.25
148.54
51.18
-33.11
-97.09
-135.11
-144.25
-127.73
-95.72
-63.27
-44.90
-52.52
-83.78
-132.39
-188.25
-241.81
-288.04
-326.92
-362.13
-377.31
-398.44
-420.00
-436.94
-442.29
-429.87
-397.02
-345.17
-279.34
-204.80
-128.97
-54.20
13.10
66.37
100.06
111.39
102.52
79.52
51.94
26.02
5.60
-14.14
-40.18
-77.10
-124.15
-174.23
-218.01
-246.02
-239.35
-189.77
-109.84
-25.11
42.13
79.37
96.91
107.41
120.79
141.58
168.84
196.58
217.74
225.93
215.75
184.22
130.63
59.85
-18.30
-92.55
-152.49
-190.16
-201.93
-189.68
-159.51
-120.67
-81.06
-45.05
-14.21
13.24
41.01
72.51
108.57
146.53
180.07
202.07
206.53
189.27
149.44
89.82
16.63
-61.46
-134.66
-194.54
-235.64
-257.08
-262.78
-259.25
-253.20
-249.00
-247.52
-246.54
-242.46
-231.93
-213.21
-186.45
-152.10
-112.29
-70.95
-33.62
-6.22
6.82
4.37
-10.18
-29.08
-40.24
-34.51
-9.14
31.74
80.39
130.01
177.77
225.50
278.13
344.54
429.00
528.54
633.84
732.82
814.22
869.87
895.68
892.37
869.20
834.69
793.18
744.24
685.31
614.35
531.05
437.07
307.19
141.29
-37.58
-195.20
-307.66
-371.56
-398.68
-405.38
-404.82
-403.75
-398.65
-385.96
-366.39
-344.79
-326.25
-312.19
-299.81
-284.15
-261.68
-229.38
-191.02
-156.16
-135.64
-135.32
-153.71
-180.24
-201.94
-209.67
-198.92
-172.76
-139.25
-107.15
-82.17
-65.62
-55.61
-49.52
-45.24
-40.39
-33.70
-25.45
-17.18
-10.89
-8.15
-10.52
-19.53
-36.06
-58.78
-83.89
-105.64
-116.72
-113.14
-95.51
-69.36
-42.97
-23.65
-14.56
-13.83
-16.45
-17.28
-14.45
-9.01
-3.96
-2.04
-3.80
-7.35
-9.48
-7.66
-1.37
7.48
15.95
21.38
22.73
21.30
20.08
22.17
29.50
42.23
58.97
78.09
97.28
113.58
123.52
123.81
112.60
90.67
61.87
29.49
0.16
-20.42
-29.96
-30.12
-25.09
-19.23
-15.04
-12.74
-11.43
-10.31
-10.38
-13.75
-21.95
-34.46
-48.40
-59.63
-64.56
-62.17
-54.08
-43.97
-35.39
-29.95
-26.88
-24.06
-19.47
-12.08
-2.57
7.30
15.65
21.46
24.83
26.54
27.08
26.39
24.54
21.21
16.01
8.72
-0.78
-12.90
-28.31
-48.15
-73.27
-102.92
-135.56
-169.21
-201.27
-228.89
-249.20
-257.47
-249.75
-228.53
-195.44
-150.74
-96.91
-38.00
21.09
75.86
123.84
164.92
201.17
236.20
272.67
311.22
351.44
392.74
434.54
475.61
512.83
541.32
556.47
555.48
539.18
512.38
481.82
452.78
426.79
401.37
372.30
336.60
293.42
244.00
190.98
137.41
86.51
41.82
6.98
-14.96
-22.59
-18.04
-6.65
4.56
9.17
3.09
-14.49
-41.72
-75.51
-113.06
-154.14
-199.88
-250.99
-305.93
-360.33
-407.97
-442.44
-459.44
-458.12
-443.73
-424.23
-407.49
-399.05
-401.37
-414.10
-434.32
-456.66
-473.93
-482.45
-480.04
-465.73
-439.57
-403.10
-359.70
-314.04
-271.08
-235.38
-215.64
-219.21
-248.58
-299.76
-364.04
-431.74
-495.67
-552.30
-570.95
-530.45
-425.73
-270.73
-89.73
94.69
265.67
410.60
520.80
594.35
631.36
636.85
620.77
594.72
568.34
547.00
531.50
519.77
510.22
499.97
480.56
447.23
400.97
347.15
293.02
244.16
203.15
173.28
153.54
140.52
132.06
127.77
127.75
131.09
134.42
131.67
120.86
99.28
66.94
26.21
-17.51
-56.80
-75.88
-65.04
-47.01
-39.86
-49.23
-79.56
-128.42
-186.85
-242.91
-286.45
-313.04
-328.35
-337.04
-343.25
-350.29
-359.56
-372.42
-390.66
-415.62
-422.03
-392.66
-319.31
-209.93
-83.13
42.24
151.33
234.37
283.47
304.09
299.94
278.13
247.12
214.10
183.63
156.59
135.93
121.28
111.41
100.43
83.68
59.18
27.65
-7.63
-42.45
-72.73
-96.90
-114.91
-130.71
-148.39
-169.82
-195.51
-225.95
-262.41
-305.29
-353.86
-403.89
-449.14
-482.01
-494.23
-481.01
-443.90
-391.50
-336.32
-292.21
-268.58
-256.87
-245.31
-218.31
-165.16
-87.57
0.40
80.99
142.11
183.75
210.95
229.52
244.77
258.94
272.44
277.13
272.24
261.16
249.46
242.00
240.55
245.06
254.36
267.62
285.39
309.96
341.24
374.84
402.23
413.36
401.32
364.72
307.95
239.40
169.31
105.33
50.94
5.77
-33.28
-70.15
-108.76
-151.47
-197.40
-241.09
-273.82
-286.01
-270.45
-224.89
-153.80
-68.35
15.42
80.28
112.72
106.97
67.51
8.20
-51.83
-94.68
-109.53
-95.22
-58.57
-9.44
43.83
96.43
145.46
187.44
216.82
227.73
217.35
188.76
150.89
114.89
88.81
73.53
63.47
50.45
29.45
2.06
-24.39
-40.93
-42.23
-29.34
-8.52
12.81
30.39
44.53
58.31
73.67
88.65
97.56
94.20
75.68
45.04
10.79
-15.80
-24.46
-9.21
30.18
88.57
157.25
226.32
286.97
333.10
361.93
373.96
371.53
357.63
335.04
306.11
273.10
238.35
204.03
171.24
139.64
107.63
73.16
34.99
-6.34
-48.61
-88.77
-124.72
-156.69
-187.15
-219.39
-254.95
-291.55
-323.06
-341.63
-341.22
-320.65
-284.42
-241.19
-200.69
-170.94
-156.52
-158.71
-176.30
-206.04
-242.45
-277.62
-302.15
-308.35
-294.08
-265.09
-233.78
-213.88
-213.76
-231.87
-257.31
-275.28
-274.61
-252.85
-216.30
-175.17
-137.21
-103.93
-71.52
-35.26
5.97
48.28
85.19
111.91
128.77
141.25
157.12
182.15
217.36
259.14
301.83
340.99
375.15
405.30
432.69
456.57
473.52
478.72
468.18
440.72
398.49
346.12
288.93
231.41
176.45
125.29
78.04
33.96
-8.34
-50.97
-96.40
-146.86
-203.06
-263.12
-322.12
-372.78
-407.57
-421.16
-412.01
-382.72
-338.64
-286.16
-231.19
-178.99
-134.49
-102.29
-85.40
-83.51
-91.80
-101.84
-104.57
-93.91
-68.43
-30.93
13.65
60.03
103.23
137.95
158.23
158.62
136.85
97.32
51.97
17.15
7.52
29.91
80.82
148.78
220.10
283.89
335.97
377.83
412.62
441.04
460.17
465.71
455.51
431.88
398.90
362.44
327.58
296.40
267.30
236.62
201.60
161.96
119.67
72.69
19.36
-40.58
-106.15
-176.64
-252.16
-332.57
-416.29
-499.54
-584.10
-668.09
-745.00
-806.41
-847.40
-869.40
-878.04
-879.17
-875.43
-875.41
-881.76
-890.60
-895.10
-891.39
-880.67
-866.30
-850.12
-775.61
-619.77
-402.10
-173.40
20.82
161.13
250.02
300.29
324.24
337.09
337.62
323.38
296.51
264.34
234.76
212.91
199.77
194.73
196.65
196.30
187.51
170.01
148.58
128.69
113.30
103.11
98.03
98.44
100.23
101.21
101.57
102.48
103.36
101.19
92.14
73.97
47.19
12.29
-27.44
-66.07
-96.28
-111.71
-109.01
-88.67
-54.62
-12.85
29.46
67.39
99.43
126.93
152.09
176.29
199.54
221.39
241.88
261.99
283.43
307.85
336.08
368.03
403.35
441.87
483.22
525.67
565.11
595.31
609.70
604.10
578.60
537.58
487.57
434.43
381.52
330.02
280.72
235.63
198.06
170.74
153.58
142.72
131.98
115.76
92.08
63.64
36.37
16.65
8.07
10.00
18.12
26.44
29.87
26.08
15.89
2.49
-10.27
-19.62
-24.40
-25.01
-22.67
-18.94
-15.52
-14.23
-16.83
-24.27
-36.47
-52.15
-69.55
-87.35
-105.09
-123.08
-141.52
-159.65
-175.35
-185.98
-189.38
-184.91
-173.69
-158.08
-141.13
-126.17
-116.61
-115.79
-126.67
-151.35
-190.49
-242.61
-303.53
-366.25
-421.43
-459.15
-471.47
-455.10
-412.99
-354.02
-290.35
-233.55
-190.80
-162.94
-145.10
-129.41
-108.43
-77.88
-37.53
9.70
59.61
108.35
153.27
192.70
225.38
250.29
266.90
275.55
277.83
276.22
273.42
271.63
272.02
274.71
278.95
283.21
285.37
282.93
273.29
254.47
225.83
188.75
146.83
105.61
71.44
49.93
44.31
54.23
75.67
102.08
126.26
142.37
147.22
140.46
123.83
100.29
73.40
47.08
25.36
11.56
7.08
10.28
16.46
19.36
13.91
-1.04
-21.88
-41.98
-55.02
-58.25
-53.24
-44.05
-34.02
-23.43
-10.01
8.46
31.28
53.67
68.52
69.81
55.77
29.83
-1.11
-30.05
-52.84
-69.23
-82.06
-95.47
-112.71
-135.14
-162.24
-192.42
-223.58
-253.18
-277.75
-293.11
-295.91
-285.97
-268.21
-252.23
-248.53
-263.49
-295.18
-333.66
-365.09
-378.39
-369.94
-344.02
-309.23
-273.34
-239.99
-209.25
-180.23
-153.40
-130.60
-113.16
-99.87
-87.02
-70.13
-47.20
-20.48
3.83
18.24
17.67
2.07
-23.45
-51.06
-73.43
-86.46
-89.82
-86.08
-79.05
-72.77
-71.31
-79.05
-100.39
-138.00
-190.51
-251.09
-307.99
-348.37
-363.10
-349.90
-313.86
-264.02
-209.03
-153.95
-99.77
-44.76
12.86
72.63
130.93
181.74
218.91
238.88
243.11
238.52
235.65
244.43
269.50
307.56
348.16
378.04
386.79
371.07
335.57
290.19
245.56
208.92
182.31
163.22
146.63
127.07
100.36
64.74
21.25
-26.24
-71.60
-108.13
-130.74
-137.85
-132.20
-119.93
-108.10
-102.05
-103.51
-110.83
-120.57
-129.60
-136.22
-139.97
-140.37
-135.97
-124.60
-104.35
-75.13
-39.27
-0.66
36.88
71.41
103.11
133.32
162.69
190.09
212.72
227.72
233.96
232.66
226.65
218.64
209.78
199.56
187.03
172.35
157.33
144.53
135.27
128.34
120.11
106.50
85.44
58.80
32.20
13.00
7.08
16.17
36.91
62.22
84.07
96.46
97.28
88.29
73.67
58.01
44.95
36.69
34.26
37.93
47.44
61.88
79.67
98.91
117.82
135.40
151.43
166.33
180.53
194.17
206.90
217.83
225.62
228.42
224.23
211.22
188.52
156.53
116.88
71.85
23.61
-26.57
-78.74
-133.90
-193.02
-255.81
-319.68
-379.64
-429.37
-463.19
-477.99
-474.40
-456.28
-429.00
-397.40
-364.46
-331.31
-298.09
-265.22
-233.53
-203.90
-176.19
-148.47
-117.32
-79.30
-33.05
19.26
71.65
116.15
145.57
155.99
148.06
126.50
98.15
69.48
44.97
26.37
13.58
5.69
1.97
2.09
5.87
12.83
21.91
31.64
40.33
46.65
50.06
51.06
51.17
52.30
56.01
62.55
70.34
76.03
75.55
65.59
45.05
15.65
-18.61
-52.92
-83.14
-106.68
-122.43
-130.09
-129.64
-121.47
-106.62
-86.98
-64.66
-40.86
-14.98
14.96
50.72
91.76
133.85
169.90
192.31
196.06
180.86
151.32
114.81
78.62
47.61
23.28
4.84
-9.55
-21.32
-30.98
-38.39
-43.30
-45.62
-45.53
-43.21
-38.70
-32.03
-23.52
-13.89
-4.01
5.51
14.83
25.03
37.76
54.49
75.63
99.70
122.98
139.97
144.91
134.34
109.34
76.53
46.91
32.43
41.62
76.14
129.68
190.04
243.19
277.66
287.62
273.44
240.33
195.69
146.61
98.43
54.39
16.21
-15.30
-39.90
-58.03
-71.15
-81.68
-92.44
-105.72
-122.69
-143.36
-166.75
-191.50
-215.74
-236.99
-252.02
-257.28
-249.89
-228.67
-194.71
-151.11
-102.28
-52.81
-6.62
33.94
68.18
96.62
119.88
137.49
147.39
146.45
132.37
105.60
70.31
33.47
2.16
-19.42
-31.66
-38.81
-46.32
-57.56
-71.90
-85.03
-91.27
-86.59
-70.49
-46.08
-18.32
8.12
30.53
48.11
61.12
69.67
73.22
71.14
63.47
51.63
38.21
26.51
19.69
19.98
28.17
42.95
60.83
76.28
83.13
76.61
55.60
23.80
-10.92
-39.29
-54.20
-53.35
-39.73
-19.70
0.14
15.51
25.15
29.95
31.09
28.89
22.74
11.92
-3.56
-22.68
-43.84
-65.59
-86.89
-107.22
-126.72
-146.29
-167.63
-192.47
-221.14
-251.36
-278.19
-295.46
-298.38
-285.63
-259.88
-226.21
-189.49
-151.98
-112.66
-68.40
-16.38
43.12
105.22
161.00
200.05
214.19
200.90
164.47
114.57
62.71
18.25
-14.20
-34.77
-46.70
-53.84
-59.04
-63.67
-68.27
-73.10
-78.37
-84.11
-89.98
-95.30
-99.14
-100.39
-97.97
-91.03
-79.51
-64.64
-48.97
-35.67
-27.11
-23.60
-22.75
-20.28
-11.57
6.38
33.81
68.22
105.68
142.43
175.99
205.42
230.45
250.68
265.06
272.35
271.89
264.48
252.29
238.31
225.36
215.29
208.83
205.78
205.29
206.07
206.49
204.99
200.60
193.38
184.31
174.70
165.22
155.37
143.69
128.51
108.72
84.21
55.83
24.92
-6.90
-37.84
-65.95
-89.47
-107.55
-120.86
-131.48
-141.78
-152.88
-163.56
-170.50
-169.97
-159.81
-140.88
-116.52
-90.78
-66.24
-42.92
-19.10
6.71
33.84
58.93
77.09
84.31
79.53
65.05
45.38
25.15
7.26
-7.83
-21.39
-35.09
-49.95
-65.94
-82.48
-98.93
-114.93
-130.12
-143.71
-154.20
-159.71
-158.69
-150.55
-136.12
-117.29
-96.53
-76.20
-58.23
-43.88
-33.78
-27.76
-24.78
-23.03
-19.95
-12.67
1.46
23.95
54.36
89.83
125.42
155.38
174.61
180.19
171.93
152.19
124.96
94.85
66.20
42.51
26.06
17.50
15.82
18.59
22.66
25.13
24.03
18.59
8.99
-3.67
-17.61
-30.39
-39.26
-41.83
-36.84
-24.95
-8.57
8.87
24.57
37.06
46.34
53.25
58.66
62.93
65.97
67.60
68.16
69.54
74.07
83.44
97.49
114.16
130.26
142.74
149.73
150.92
148.59
145.56
143.85
143.51
142.81
139.23
130.20
113.42
87.22
52.78
13.32
-26.13
-59.75
-82.05
-88.82
-78.50
-52.79
-25.57
-9.54
-11.99
-30.57
-56.79
-82.42
-102.74
-116.49
-124.77
-130.09
-133.92
-137.56
-141.87
-146.57
-151.32
-154.16
-152.44
-144.82
-132.59
-118.16
-104.54
-93.66
-85.80
-79.86
-74.17
-68.02
-61.33
-55.43
-50.97
-47.48
-43.48
-37.63
-30.15
-22.85
-18.48
-19.36
-26.47
-38.75
-54.04
-70.36
-86.93
-104.20
-122.70
-141.84
-159.07
-170.47
-171.71
-159.65
-133.45
-95.34
-50.43
-5.44
33.11
60.65
75.21
77.41
70.34
58.94
48.99
45.46
51.34
66.86
89.32
113.38
132.05
139.02
130.73
107.42
72.35
30.22
-14.22
-55.46
-86.37
-101.97
-102.34
-91.84
-75.14
-55.51
-35.03
-15.43
1.66
14.78
22.80
25.66
24.18
20.29
15.70
11.27
6.74
1.29
-6.09
-16.79
-32.10
-52.88
-77.69
-102.63
-121.95
-129.60
-121.52
-97.81
-63.17
-22.35
16.54
47.47
68.68
82.67
94.19
107.75
125.88
148.79
175.11
202.29
227.78
248.46
260.56
260.59
247.04
221.79
190.35
160.23
137.75
125.81
122.28
120.73
113.26
94.02
61.55
18.83
-28.55
-75.38
-118.39
-156.90
-192.18
-226.63
-263.03
-304.07
-351.42
-404.27
-458.12
-504.42
-532.73
-534.33
-505.65
-449.92
-375.93
-294.41
-214.44
-141.25
-76.08
-17.83
35.00
83.59
129.11
173.24
217.83
263.34
307.06
342.67
361.99
357.98
327.98
275.01
206.15
129.21
49.31
-32.31
-116.66
-203.72
-289.74
-367.05
-426.68
-462.30
-472.93
-463.20
-440.90
-413.43
-385.21
-356.73
-325.95
-290.46
-249.30
-203.35
-154.87
-106.27
-59.16
-14.17
28.86
70.34
110.40
148.76
185.02
219.38
252.92
287.58
324.87
364.20
401.79
431.22
445.85
442.10
421.67
391.13
359.21
332.92
314.97
303.84
296.39
290.74
287.75
289.72
297.71
309.57
320.17
323.99
318.04
303.47
284.63
266.64
252.90
243.85
237.44
230.55
220.49
205.91
187.09
165.51
143.48
123.27
106.29
92.59
81.02
70.06
58.65
46.72
34.40
21.06
4.87
-16.46
-43.83
-75.29
-105.92
-129.79
-142.71
-144.48
-138.91
-131.79
-128.14
-129.77
-134.90
-139.68
-140.77
-137.11
-130.27
-123.33
-119.07
-118.92
-122.73
-129.55
-138.38
-148.33
-158.28
-166.46
-170.58
-168.84
-161.14
-149.51
-137.45
-128.36
-123.89
-123.10
-123.14
-120.79
-113.99
-102.63
-88.28
-73.36
-59.96
-49.16
-40.88
-34.49
-29.42
-25.57
-23.26
-22.83
-24.03
-25.83
-26.77
-25.70
-22.50
-18.20
-14.56
-12.99
-13.88
-16.52
-19.48
-21.48
-21.90
-20.89
-18.99
-16.82
-14.78
-13.00
-11.41
-9.70
-7.50
-4.50
-0.68
3.49
7.12
9.44
10.32
10.67
12.25
16.82
25.27
37.04
50.19
62.23
71.13
75.99
77.19
75.99
73.90
71.96
70.36
67.88
61.65
48.39
25.98
-5.39
-42.65
-81.01
-115.95
-145.23
-169.96
-194.00
-221.54
-254.85
-294.07
-337.86
-384.67
-432.88
-479.84
-521.59
-554.21
-574.46
-581.34
-577.18
-565.93
-550.75
-532.03
-506.68
-471.30
-427.05
-377.42
-325.90
-275.10
-225.34
-175.24
-123.47
-68.27
-10.09
44.75
91.50
130.29
162.72
190.72
215.49
237.23
259.00
283.71
306.62
324.45
338.68
350.82
362.27
374.06
386.22
402.13
423.85
442.90
453.96
460.46
468.57
486.02
520.09
544.06
533.48
526.00
535.06
538.41
524.02
485.32
421.43
336.54
237.62
137.53
50.15
-20.94
-72.31
-99.47
-106.14
-104.60
-110.23
-135.09
-177.54
-222.59
-254.75
-258.03
-221.61
-148.69
-54.86
40.15
117.74
166.91
185.43
173.75
139.00
94.59
54.48
29.24
25.81
44.42
70.54
88.39
85.71
62.62
29.24
3.38
-12.76
-18.99
-15.54
-3.05
15.52
35.22
49.44
51.84
38.98
11.19
-25.20
-62.39
-94.89
-120.28
-139.79
-157.38
-177.84
-203.63
-233.74
-261.56
-278.36
-276.42
-250.80
-201.56
-134.48
-60.98
5.50
52.94
74.81
69.69
40.29
-6.63
-62.00
-115.09
-156.78
-178.76
-174.47
-140.21
-77.92
4.15
94.75
181.68
255.68
307.91
333.25
330.98
304.61
259.64
201.63
137.21
70.86
6.00
-60.45
-132.61
-211.84
-295.59
-379.10
-458.20
-528.09
-586.91
-605.62
-565.65
-470.65
-346.23
-222.14
-117.46
-47.99
-5.76
16.42
25.17
22.66
11.86
0.88
-2.06
10.26
34.84
63.18
86.03
103.80
116.78
123.06
121.00
109.16
87.23
56.54
22.98
-7.17
-28.72
-43.08
-54.84
-66.80
-77.14
-79.36
-66.45
-34.04
14.87
71.54
123.68
162.09
184.04
191.59
187.32
170.07
135.68
79.86
4.15
-82.56
-165.71
-230.43
-268.24
-279.55
-271.94
-253.99
-230.61
-201.42
-163.62
-115.92
-61.04
-5.15
45.86
89.96
130.50
174.01
225.49
284.13
342.17
387.44
408.04
397.37
356.77
294.96
224.40
156.75
100.05
57.94
31.25
19.97
24.16
43.44
76.12
118.92
167.42
217.19
263.79
302.23
326.42
329.93
308.51
263.20
201.93
137.82
84.52
50.52
35.58
31.94
28.77
17.88
-3.11
-31.19
-61.14
-88.58
-110.91
-126.35
-132.29
-125.40
-103.28
-67.36
-24.39
15.14
41.07
48.06
37.79
17.72
-3.11
-18.46
-27.24
-32.50
-38.58
-48.07
-60.55
-73.67
-85.26
-95.51
-107.32
-124.39
-148.52
-177.49
-205.21
-223.87
-227.89
-216.31
-193.12
-165.42
-140.25
-122.06
-111.65
-107.22
-106.34
-107.52
-110.48
-114.97
-119.28
-120.10
-113.78
-98.65
-76.57
-52.71
-33.39
-23.11
-22.50
-28.05
-33.91
-34.48
-26.32
-8.73
17.15
50.04
89.27
134.44
184.29
236.11
285.62
327.98
359.05
376.36
379.28
368.33
344.64
309.68
265.43
214.69
161.28
109.51
63.18
24.54
-6.42
-31.85
-55.22
-80.24
-110.17
-147.09
-191.45
-241.31
-291.91
-336.10
-366.01
-375.49
-362.17
-328.17
-278.80
-220.36
-158.20
-96.34
-38.28
11.85
49.27
70.20
74.20
65.46
51.77
41.52
40.31
48.88
63.81
79.79
91.97
97.01
92.74
77.63
51.38
16.58
-20.21
-49.31
-61.33
-51.56
-22.90
14.83
48.93
69.41
73.17
64.44
51.81
43.65
44.69
55.14
72.37
93.17
115.34
137.67
158.85
176.44
186.73
186.14
173.00
148.83
118.11
86.26
56.80
29.42
0.07
-36.39
-82.41
-134.84
-184.64
-219.76
-229.83
-210.22
-163.84
-99.82
-30.51
32.02
78.23
102.02
100.58
74.69
28.89
-28.61
-87.53
-138.67
-177.52
-206.29
-232.58
-265.09
-308.29
-358.82
-406.02
-436.14
-438.24
-408.41
-350.82
-275.12
-192.60
-112.88
-42.76
13.35
52.76
74.62
80.81
76.36
68.68
65.55
72.37
90.71
118.50
151.68
185.93
218.22
246.60
269.42
284.43
288.30
277.12
247.49
198.29
131.98
55.36
-21.05
-84.97
-125.14
-134.56
-112.56
-65.38
-4.83
54.34
98.07
116.50
106.40
72.01
23.63
-25.52
-63.46
-82.87
-82.53
-66.56
-41.60
-13.59
14.20
41.12
67.89
94.77
120.87
144.48
163.97
179.01
190.66
200.20
207.67
211.08
206.80
191.26
162.45
120.29
66.67
4.74
-61.63
-127.87
-188.59
-238.11
-271.35
-285.87
-283.53
-269.51
-250.45
-231.64
-215.35
-200.72
-185.45
-167.19
-145.67
-123.27
-103.36
-89.26
-83.05
-85.55
-96.90
-117.45
-146.85
-176.74
-196.69
-197.05
-174.25
-131.84
-77.54
-20.37
28.70
67.13
94.00
109.91
118.08
123.68
132.66
147.72
170.15
199.02
232.60
268.03
301.51
328.77
345.51
348.85
338.54
317.36
289.56
259.06
226.84
191.03
148.86
98.53
40.53
-22.43
-85.75
-143.90
-190.52
-219.48
-226.31
-210.14
-175.21
-130.40
-86.26
-50.85
-27.51
-14.99
-10.33
-11.96
-21.16
-40.91
-72.88
-114.72
-159.13
-196.79
-220.38
-227.89
-222.73
-211.42
-199.52
-188.86
-177.14
-159.69
-133.62
-100.40
-65.51
-35.15
-12.66
3.72
19.72
41.83
75.09
119.91
171.88
223.26
266.21
295.07
307.78
305.19
289.60
265.04
235.47
204.77
177.10
157.58
150.78
158.87
179.46
196.00
191.79
157.67
97.84
25.32
-46.27
-108.96
-159.89
-199.02
-226.84
-242.06
-243.95
-234.03
-219.53
-203.43
-187.15
-169.63
-148.71
-124.07
-98.08
-76.57
-65.42
-66.84
-76.12
-83.68
-78.53
-52.13
-2.65
64.66
138.67
207.76
263.91
304.57
330.04
341.41
338.81
321.68
290.38
245.83
191.43
132.54
75.09
22.89
-22.96
-63.65
-101.37
-138.59
-179.02
-224.63
-274.71
-325.51
-372.49
-411.82
-441.44
-460.93
-456.96
-421.64
-357.45
-277.94
-199.09
-131.60
-78.63
-39.70
-7.97
21.81
51.40
81.93
115.14
154.39
199.88
251.17
306.69
363.81
417.19
457.35
473.81
458.96
412.03
339.80
254.97
171.10
97.82
37.58
-14.51
-66.48
-125.08
-192.81
-267.70
-344.23
-415.21
-473.32
-513.02
-532.10
-531.87
-516.82
-493.07
-466.74
-441.99
-420.25
-400.41
-379.95
-355.80
-325.10
-285.45
-235.31
-174.45
-103.94
-25.80
57.58
143.64
229.49
311.78
386.68
450.22
499.03
530.82
544.51
540.14
519.40
486.41
447.97
412.78
389.11
381.87
390.73
410.32
432.58
449.94
457.68
454.30
440.46
417.48
386.53
348.90
306.49
261.85
217.39
174.48
132.73
90.49
45.69
-3.18
-56.12
-111.08
-163.72
-208.16
-238.11
-248.96
-239.12
-210.95
-170.21
-124.22
-79.74
-41.49
-12.11
7.15
15.09
10.62
-6.82
-36.74
-76.39
-120.50
-162.18
-195.10
-215.26
-222.66
-220.23
-212.27
-203.62
-197.40
-193.49
-188.78
-179.30
-162.16
-138.32
-111.34
-86.08
-68.61
-63.50
-71.65
-89.88
-112.71
-133.07
-145.31
-143.97
-125.09
-90.89
-50.00
-14.31
5.64
3.86
-18.15
-54.74
-96.73
-122.30
-115.38
-76.49
-22.60
26.83
54.26
65.10
66.28
61.99
52.81
39.31
19.44
-7.06
-36.92
-64.75
-84.09
-92.08
-88.40
-75.37
-59.00
-46.65
-42.85
-47.61
-57.48
-67.18
-73.74
-75.74
-72.88
-66.61
-59.11
-51.62
-44.12
-36.31
-28.02
-20.65
-15.57
-13.22
-13.46
-15.42
-17.26
-16.45
-10.87
0.31
15.53
31.37
43.79
49.27
46.27
36.13
22.59
10.22
2.52
0.58
3.25
8.38
13.93
18.85
23.08
27.06
31.17
35.58
40.34
45.58
51.35
57.33
62.21
63.71
59.03
45.84
23.25
-7.42
-42.78
-78.13
-108.74
-131.08
-143.49
-146.07
-139.93
-126.37
-106.27
-80.12
-48.59
-13.05
24.18
60.28
92.55
119.29
139.96
155.05
165.43
171.58
173.35
170.07
161.39
148.12
132.69
118.60
109.10
105.45
106.03
106.78
102.92
91.15
71.20
45.94
19.92
-2.70
-19.68
-31.12
-38.67
-44.20
-48.87
-52.97
-56.36
-59.13
-61.97
-65.95
-72.14
-81.08
-92.66
-106.29
-121.26
-137.02
-153.14
-169.12
-184.18
-197.13
-206.59
-211.34
-210.63
-204.38
-193.13
-177.78
-159.27
-138.28
-115.04
-89.25
-60.13
-26.83
11.16
53.62
99.39
146.50
192.51
234.83
271.00
298.92
317.08
325.03
323.82
315.99
305.11
294.85
287.89
285.21
285.94
287.96
288.80
286.41
279.68
268.62
254.28
238.27
222.50
208.38
196.23
184.93
171.96
153.98
127.76
91.25
44.38
-10.58
-69.15
-125.42
-173.20
-207.42
-225.19
-226.52
-214.20
-193.32
-170.10
-150.82
-140.70
-143.04
-158.76
-186.38
-222.47
-262.21
-300.15
-330.80
-349.03
-350.79
-333.84
-298.85
-249.75
-193.10
-136.28
-85.26
-43.22
-10.92
11.44
22.41
18.93
-1.79
-39.22
-87.37
-135.43
-171.19
-185.48
-175.25
-143.76
-98.32
-47.06
3.11
47.07
81.00
102.30
110.29
107.32
98.90
92.13
92.87
103.08
119.78
136.52
146.51
145.62
133.85
114.89
93.87
75.12
60.57
49.63
40.15
29.90
17.68
3.63
-10.98
-24.63
-36.28
-46.04
-54.76
-63.43
-72.45
-81.38
-89.43
-96.13
-101.80
-107.13
-112.41
-116.68
-117.89
-113.76
-102.87
-85.04
-60.89
-31.07
4.08
43.94
86.60
128.39
164.65
191.55
207.92
215.73
218.93
221.40
225.32
230.69
236.38
241.31
245.00
247.06
246.24
239.68
223.36
193.72
149.47
92.61
27.76
-39.58
-104.94
-165.66
-220.44
-268.06
-306.64
-333.84
-348.14
-350.03
-342.32
-329.20
-314.36
-299.57
-284.23
-266.37
-244.29
-217.91
-189.21
-161.20
-136.54
-115.97
-97.48
-76.62
-48.03
-7.69
45.10
106.63
169.42
224.10
262.33
279.57
276.68
259.52
236.77
216.53
203.30
196.64
192.20
184.44
169.45
146.75
118.95
90.00
63.13
39.60
18.72
-1.41
-22.91
-47.45
-75.83
-107.55
-140.29
-169.66
-189.88
-195.59
-184.28
-158.12
-124.03
-91.68
-70.05
-64.17
-73.39
-91.96
-111.35
-123.31
-122.03
-104.97
-72.68
-27.97
24.88
80.55
133.16
177.13
208.28
224.97
228.62
223.09
213.41
204.07
197.71
194.73
193.82
192.81
189.69
183.15
172.78
159.24
144.39
130.89
121.32
117.22
118.20
122.20
126.72
130.62
135.17
143.50
158.52
180.55
205.78
226.78
235.12
225.05
196.48
156.00
115.32
87.80
84.18
109.11
159.31
224.47
290.32
343.01
373.02
377.16
358.35
323.12
278.86
231.37
183.94
137.81
92.99
49.38
7.23
-32.70
-69.43
-101.84
-128.99
-150.34
-166.07
-177.32
-185.79
-193.37
-201.67
-212.04
-225.30
-241.43
-259.08
-275.42
-286.87
-290.46
-285.71
-275.04
-263.54
-256.52
-257.67
-268.10
-286.62
-311.47
-341.57
-376.86
-417.38
-461.81
-506.64
-546.69
-576.72
-593.14
-595.24
-584.92
-565.68
-540.95
-512.79
-481.61
-446.90
-408.25
-366.08
-321.95
-277.48
-233.43
-188.92
-141.51
-88.07
-26.64
41.41
110.66
171.92
215.67
235.89
233.00
214.16
190.37
171.87
164.45
168.58
181.04
197.98
216.60
235.06
251.18
262.07
265.17
260.31
250.59
240.67
233.98
229.96
224.47
212.68
192.64
167.61
144.91
132.45
134.69
150.72
174.81
199.36
218.04
227.64
228.17
221.60
210.34
196.02
179.11
159.08
135.19
107.40
76.81
45.09
13.16
-19.93
-57.13
-101.32
-152.52
-205.64
-250.92
-277.74
-279.51
-257.42
-220.13
-179.46
-144.56
-118.12
-96.85
-75.49
-51.85
-28.66
-11.77
-5.68
-9.69
-17.29
-19.25
-8.38
17.38
54.89
98.31
142.33
183.54
220.02
249.49
268.38
272.70
260.13
231.55
190.84
143.15
93.03
43.97
-0.46
-35.01
-52.60
-46.68
-15.08
37.28
98.59
154.04
191.44
205.61
199.49
181.50
160.72
142.85
128.57
114.59
96.32
70.47
36.71
-2.31
-41.79
-76.73
-103.30
-120.01
-128.03
-130.65
-131.76
-133.99
-137.25
-138.51
-133.08
-116.99
-89.27
-53.04
-14.62
19.01
43.17
57.40
65.53
73.63
86.93
107.29
132.37
156.89
175.26
184.00
182.84
173.70
159.02
139.83
115.28
83.26
41.71
-10.35
-72.49
-143.00
-218.91
-295.79
-367.49
-426.55
-465.91
-481.23
-472.99
-446.84
-411.69
-376.28
-345.79
-320.19
-295.32
-265.77
-228.16
-183.03
-134.61
-89.03
-51.90
-26.54
-13.48
-11.03
-16.29
-26.18
-37.69
-47.98
-54.25
-54.12
-46.11
-30.28
-8.53
15.70
38.42
56.33
67.80
73.25
74.71
74.85
75.86
78.64
82.74
86.75
89.14
88.97
86.33
82.12
77.69
74.15
71.97
70.87
70.04
68.52
65.60
60.99
54.80
47.51
39.85
32.74
27.24
24.22
24.19
27.07
32.21
38.55
45.00
50.67
54.96
57.66
58.65
57.93
55.57
51.77
46.90
41.43
35.91
30.87
26.69
23.59
21.55
20.32
19.50
18.58
17.13
14.94
12.13
9.01
5.96
3.22
0.83
-1.33
-3.31
-4.94
-5.78
-5.19
-2.61
2.21
9.06
17.19
25.64
33.45
39.89
44.51
47.17
47.85
46.70
43.95
40.00
35.49
31.16
27.69
25.42
24.20
23.41
22.30
20.26
16.95
12.61
7.71
2.84
-1.58
-5.54
-9.32
-13.24
-17.38
-21.40
-24.50
-25.81
-24.66
-20.87
-14.90
-7.57
0.21
7.71
14.42
20.11
24.60
27.81
29.70
30.37
29.99
28.77
26.93
24.59
21.92
18.99
15.90
12.69
9.30
5.61
1.50
-3.03
-7.87
-12.70
-17.28
-21.47
-25.31
-29.02
-32.85
-36.94
-41.06
-44.55
-46.43
-45.75
-42.03
-35.50
-27.20
-18.62
-11.29
-6.35
-4.33
-5.08
-7.92
-11.58
-14.07
-13.19
-7.21
3.81
17.47
29.31
34.60
30.66
18.50
2.81
-10.24
-15.87
-13.15
-5.12
3.07
7.25
6.42
2.86
0.32
1.68
7.61
16.53
25.80
32.82
35.04
29.39
12.13
-20.13
-68.20
-127.94
-190.09
-242.46
-274.08
-279.09
-258.30
-217.80
-165.26
-106.66
-44.80
19.27
83.69
143.78
192.06
220.89
225.89
208.54
176.14
139.31
108.01
88.25
80.55
80.83
82.83
80.60
70.29
50.68
22.62
-11.98
-50.65
-90.52
-127.82
-157.60
-174.31
-173.64
-154.50
-120.24
-77.92
-35.66
0.90
31.00
58.78
90.49
130.47
178.19
227.56
269.13
293.82
296.20
275.67
235.83
182.45
121.42
57.56
-5.23
-63.23
-112.10
-146.80
-162.53
-156.18
-127.61
-79.78
-17.91
51.83
123.72
193.40
257.73
314.37
361.35
396.80
419.21
427.90
423.30
406.88
380.88
347.44
308.03
263.12
212.54
156.64
97.71
40.64
-7.86
-41.48
-57.09
-56.69
-47.00
-36.94
-34.15
-42.03
-59.03
-80.25
-100.36
-115.95
-126.38
-132.87
-136.78
-138.36
-136.81
-131.30
-121.99
-110.62
-99.87
-92.13
-88.32
-87.59
-87.98
-87.64
-86.01
-84.05
-83.73
-86.89
-93.92
-103.40
-112.47
-117.91
-117.54
-111.04
-99.95
-87.00
-74.93
-65.50
-59.29
-56.12
-55.58
-57.35
-61.13
-66.26
-71.70
-76.18
-78.58
-78.36
-75.70
-71.28
-65.88
-60.16
-54.50
-49.07
-44.00
-39.41
-35.40
-32.08
-29.30
-26.78
-24.04
-20.60
-16.12
-10.72
-5.22
-1.03
0.33
-1.98
-7.53
-14.64
-21.28
-26.24
-29.86
-33.75
-39.69
-48.35
-58.85
-69.35
-78.20
-84.94
-90.39
-95.75
-101.53
-107.12
-111.42
-114.07
-116.23
-120.29
-128.41
-141.29
-157.28
-173.17
-185.48
-191.86
-191.71
-185.91
-175.88
-162.46
-145.48
-123.88
-96.58
-63.55
-26.35
11.94
47.56
76.98
98.06
110.40
115.18
114.21
109.08
100.51
88.55
73.25
55.47
37.32
21.63
10.96
6.49
7.69
12.59
18.88
24.87
29.83
33.71
36.50
37.66
36.30
31.74
24.08
14.44
4.53
-4.05
-10.38
-14.35
-16.32
-16.54
-14.94
-11.19
-5.05
3.25
12.88
22.68
31.49
38.49
43.19
45.56
45.91
44.94
43.70
43.20
44.21
46.80
50.32
53.71
56.11
57.24
57.56
57.77
58.34
59.14
59.50
58.66
56.25
52.48
47.91
43.23
38.96
35.37
32.63
30.92
30.43
31.24
33.22
36.03
39.14
42.07
44.48
46.19
47.20
47.77
48.37
49.71
52.49
57.10
63.40
70.59
77.52
83.07
86.44
87.43
86.34
83.94
81.24
79.19
78.33
78.35
78.04
75.69
69.96
60.69
49.22
37.98
29.47
25.40
26.06
30.43
36.50
41.83
43.78
40.04
28.93
10.15
-15.10
-44.33
-74.71
-104.14
-132.14
-160.03
-189.99
-223.65
-260.72
-298.40
-331.94
-356.29
-368.08
-367.14
-356.57
-341.32
-325.84
-312.25
-299.94
-286.52
-269.56
-247.89
-221.92
-193.00
-162.81
-133.21
-106.59
-85.90
-73.86
-71.50
-76.76
-84.40
-87.49
-80.09
-59.66
-27.61
11.93
54.78
98.68
143.71
190.69
238.99
285.15
323.40
347.52
353.17
339.04
306.75
260.00
203.71
143.83
87.11
40.09
7.16
-11.51
-20.61
-27.76
-39.80
-59.14
-82.46
-102.46
-111.66
-105.68
-84.22
-49.83
-5.68
45.92
103.29
163.98
223.74
276.80
317.70
343.32
354.02
353.12
345.11
333.80
320.92
306.06
287.52
263.64
233.81
199.07
161.83
125.05
91.28
61.84
36.60
14.43
-6.12
-26.23
-46.61
-67.59
-89.55
-112.91
-137.97
-164.42
-190.78
-214.53
-232.63
-242.40
-242.53
-233.47
-217.22
-196.81
-175.52
-156.38
-141.87
-133.45
-131.34
-134.13
-138.78
-141.00
-136.18
-120.56
-92.13
-51.35
-1.05
54.16
109.02
158.77
199.96
230.80
251.07
261.81
264.92
262.85
258.02
252.14
245.55
236.98
223.93
204.06
176.29
141.67
103.28
64.72
28.98
-2.82
-31.14
-57.43
-83.25
-109.88
-138.53
-170.39
-206.16
-244.97
-283.56
-316.75
-339.55
-350.21
-352.44
-354.82
-367.17
-395.41
-437.60
-483.76
-519.89
-534.05
-521.23
-484.69
-433.00
-375.18
-316.79
-259.03
-201.16
-143.72
-90.21
-46.03
-15.17
2.61
12.95
24.69
46.00
80.85
127.43
179.17
227.72
266.18
291.15
303.10
305.09
300.95
293.65
284.51
273.57
260.17
243.80
224.22
201.01
172.71
136.99
91.63
36.38
-25.38
-86.70
-138.82
-174.32
-189.56
-185.71
-167.90
-143.31
-119.16
-101.30
-93.44
-96.80
-109.74
-127.99
-145.44
-155.52
-153.20
-136.11
-104.56
-60.53
-6.74
53.57
115.78
173.28
218.00
242.80
244.68
227.17
199.98
176.14
167.51
180.85
216.10
267.27
325.14
380.10
424.32
452.68
463.01
456.08
435.40
406.54
375.70
347.89
325.59
308.07
292.21
274.14
250.91
221.55
187.29
150.92
115.85
85.06
60.06
40.62
25.00
10.82
-3.81
-19.27
-34.31
-46.60
-53.83
-54.62
-48.81
-37.20
-20.97
-1.59
19.21
39.09
55.24
64.91
66.35
59.36
45.32
26.56
5.58
-15.51
-35.16
-52.39
-66.59
-77.49
-85.22
-90.35
-93.89
-97.02
-100.78
-105.80
-112.17
-119.55
-127.40
-135.14
-142.19
-148.25
-153.34
-158.18
-164.12
-172.54
-183.98
-197.43
-210.17
-218.60
-219.79
-212.77
-199.07
-182.08
-165.52
-152.01
-142.28
-135.45
-129.69
-123.24
-114.99
-104.85
-93.75
-83.46
-76.09
-73.30
-75.33
-80.47
-85.36
-86.00
-79.39
-64.77
-43.89
-20.31
2.12
20.61
33.92
42.10
45.74
45.43
41.77
35.70
28.62
22.18
17.45
14.22
10.80
4.70
-6.19
-22.60
-43.50
-66.76
-90.04
-111.60
-130.36
-145.57
-156.54
-162.54
-163.20
-158.83
-150.50
-139.73
-128.02
-116.51
-105.77
-95.82
-86.50
-77.65
-69.24
-61.35
-54.14
-47.91
-43.46
-42.08
-45.29
-54.05
-67.54
-82.34
-92.73
-91.95
-74.80
-39.80
9.71
66.44
121.39
166.73
197.87
213.99
217.39
211.99
201.94
190.53
179.91
171.02
164.24
159.78
157.99
159.09
162.67
167.28
170.53
170.07
164.60
154.65
142.38
130.61
121.62
116.34
114.42
114.74
115.89
116.44
114.88
109.81
100.26
86.05
67.49
44.63
16.62
-18.12
-60.68
-110.04
-162.13
-210.69
-249.32
-273.80
-283.29
-279.82
-266.67
-246.91
-223.09
-197.74
-174.46
-158.02
-152.95
-161.47
-181.65
-207.20
-229.43
-240.60
-237.01
-220.44
-196.84
-173.16
-153.74
-138.27
-122.34
-100.06
-66.98
-21.67
34.09
96.11
158.66
214.66
256.44
277.14
272.62
243.11
193.14
129.31
57.86
-16.80
-91.61
-162.85
-224.63
-269.58
-291.49
-288.62
-265.11
-229.39
-190.34
-153.58
-119.75
-85.67
-47.20
-2.43
46.87
95.84
138.64
171.07
192.07
203.81
210.21
214.74
218.81
221.45
220.57
214.82
204.89
193.60
184.66
180.94
183.15
189.82
198.28
206.04
211.91
216.16
220.00
224.68
230.70
237.41
243.27
246.37
245.23
239.35
229.24
216.21
201.70
186.82
172.16
157.80
143.43
128.46
112.06
93.19
70.70
43.62
11.18
-27.06
-71.18
-120.99
-176.14
-236.24
-300.73
-368.18
-435.38
-496.80
-545.01
-572.50
-574.12
-549.24
-502.01
-439.78
-370.05
-298.19
-226.76
-156.91
-90.44
-30.93
16.92
49.26
65.13
67.36
61.47
53.52
48.04
46.66
47.87
48.49
45.48
37.82
27.30
17.87
13.78
17.46
28.17
42.31
55.17
63.10
64.79
61.09
53.71
43.95
32.35
19.38
6.42
-3.72
-7.76
-3.59
8.21
24.16
39.15
48.68
50.61
46.00
38.29
31.43
28.19
29.20
33.18
37.86
41.23
42.15
40.43
36.50
30.94
24.36
17.50
11.28
6.74
4.73
5.53
8.55
12.46
15.41
15.64
12.16
4.98
-4.74
-15.07
-23.80
-29.11
-29.97
-26.46
-19.64
-11.00
-2.14
5.80
12.26
17.11
20.51
22.71
23.83
24.06
23.64
22.91
22.24
21.95
22.07
22.35
22.43
21.91
20.63
18.67
16.26
13.68
11.09
8.47
5.66
2.48
-1.22
-5.32
-9.41
-12.82
-14.70
-14.26
-11.07
-5.26
2.46
10.98
19.11
25.90
30.82
33.78
35.00
34.79
33.51
31.52
29.13
26.64
24.21
21.83
19.30
16.39
12.91
8.91
4.64
0.47
-3.26
-6.39
-9.08
-11.67
-14.65
-18.45
-23.26
-28.82
-34.36
-38.63
-40.29
-38.30
-32.40
-23.31
-12.47
-1.56
8.05
15.67
21.29
25.23
27.86
29.39
29.94
29.64
28.81
27.81
26.88
26.06
25.15
23.89
22.17
20.08
17.83
15.65
13.59
11.52
9.21
6.45
3.05
-1.02
-5.64
-10.34
-14.38
-16.85
-16.86
-13.89
-8.04
-0.01
9.22
18.62
27.47
35.36
42.05
47.31
50.91
52.58
52.27
50.25
47.08
43.40
39.80
36.59
33.81
31.39
29.10
26.73
24.08
20.96
17.21
12.71
7.35
1.09
-5.95
-13.48
-20.87
-27.22
-31.47
-32.75
-30.67
-25.57
-18.33
-10.13
-2.04
5.32
11.74
17.26
21.92
25.61
28.07
29.08
28.67
27.14
25.10
23.28
22.21
22.15
22.91
23.98
24.73
24.65
23.53
21.52
18.95
15.99
12.66
8.61
3.47
-2.87
-9.99
-16.89
-22.29
-25.07
-24.66
-21.18
-15.36
-8.08
-0.13
8.02
16.07
23.72
30.54
35.88
39.12
39.88
38.28
34.84
30.40
25.80
21.63
18.13
15.18
12.45
9.61
6.47
2.94
-1.00
-5.38
-10.30
-15.89
-22.13
-28.72
-35.03
-40.12
-43.04
-43.03
-39.76
-33.45
-24.87
-15.08
-5.31
3.37
10.17
14.67
16.80
16.81
15.12
12.26
8.73
4.91
1.04
-2.82
-6.72
-10.65
-14.51
-17.99
-20.70
-22.32
-22.79
-22.32
-21.38
-20.55
-20.34
-21.05
-22.71
-24.97
-27.04
-27.93
-26.50
-21.86
-13.60
-2.06
11.75
26.31
40.09
52.02
61.59
68.85
74.10
77.44
78.56
76.79
71.55
62.85
51.54
39.10
27.01
16.16
6.47
-2.76
-12.27
-22.15
-31.60
-39.25
-43.99
-45.68
-45.49
-45.48
-47.68
-53.04
-60.81
-68.74
-73.84
-73.60
-67.04
-55.10
-40.24
-25.47
-13.36
-5.45
-2.10
-2.71
-5.89
-9.52
-10.87
-6.98
4.46
24.12
50.26
78.98
105.49
125.80
138.14
143.06
142.55
138.57
132.03
122.80
110.53
95.51
78.93
62.40
47.11
33.15
19.55
5.04
-11.00
-28.05
-44.56
-58.54
-68.22
-72.46
-70.79
-63.21
-50.22
-32.68
-12.12
9.32
29.08
44.69
54.25
56.76
52.22
41.55
26.57
9.72
-6.13
-18.24
-24.74
-25.33
-21.68
-17.01
-15.12
-18.93
-29.43
-45.31
-63.38
-79.75
-91.03
-95.30
-92.34
-83.47
-70.93
-57.10
-44.13
-33.54
-26.21
-22.49
-22.33
-25.27
-30.50
-36.88
-42.96
-47.47
-49.64
-49.51
-47.91
-46.04
-44.80
-44.28
-43.68
-41.60
-36.77
-28.58
-17.40
-4.37
9.06
21.51
31.97
39.91
45.33
48.72
51.02
53.37
56.63
61.10
66.23
70.88
73.86
74.53
73.14
70.68
68.43
67.25
67.21
67.55
67.03
64.45
59.24
51.56
42.26
32.47
23.11
14.62
6.89
-0.42
-7.65
-14.79
-21.51
-27.39
-32.21
-36.15
-39.78
-43.78
-48.62
-54.26
-60.05
-65.00
-68.10
-68.67
-66.50
-61.88
-55.34
-47.42
-38.60
-29.37
-20.27
-12.09
-5.70
-1.86
-0.99
-2.91
-6.94
-12.07
-17.29
-21.77
-25.13
-27.48
-29.25
-30.99
-33.11
-35.70
-38.60
-41.55
-44.46
-47.48
-51.11
-55.97
-62.48
-70.60
-79.53
-87.76
-93.28
-94.25
-89.65
-79.81
-66.50
-52.39
-40.08
-31.23
-26.05
-23.45
-21.84
-19.79
-16.55
-11.96
-6.03
1.53
11.50
24.93
42.64
64.70
90.37
118.19
146.38
173.17
196.80
215.57
227.74
231.69
226.20
210.96
186.92
156.36
122.39
88.19
56.40
28.97
7.29
-7.52
-14.52
-13.24
-4.14
11.20
30.16
49.75
67.40
81.60
92.04
99.29
104.35
108.22
111.77
115.57
119.88
124.40
128.12
129.40
126.30
116.94
100.07
75.72
45.59
13.13
-17.18
-41.10
-56.07
-62.19
-62.23
-60.47
-60.86
-65.49
-73.83
-83.28
-90.70
-93.88
-92.37
-87.41
-81.00
-74.85
-69.83
-66.08
-63.45
-61.92
-61.71
-63.01
-65.67
-68.93
-71.79
-73.43
-73.66
-73.00
-72.43
-72.78
-74.34
-76.79
-79.18
-80.50
-79.97
-77.24
-72.37
-65.60
-57.18
-47.33
-36.40
-24.92
-13.68
-3.73
3.88
8.33
9.21
6.70
1.41
-5.69
-13.44
-20.70
-26.68
-30.96
-33.62
-35.09
-35.95
-36.69
-37.49
-38.19
-38.35
-37.43
-34.93
-30.60
-24.51
-17.02
-8.83
-0.71
6.59
12.52
16.74
19.22
20.16
19.85
18.71
17.15
15.51
14.05
12.84
11.72
10.39
8.60
6.48
4.61
3.89
5.08
8.36
13.04
17.85
21.48
23.26
23.43
22.91
22.68
23.18
24.11
24.68
24.16
22.24
19.29
15.98
12.99
10.52
8.33
5.84
2.43
-2.19
-7.85
-14.06
-20.20
-25.76
-30.47
-34.40
-37.85
-41.16
-44.71
-48.82
-53.69
-59.33
-65.38
-70.96
-74.87
-75.86
-73.11
-66.61
-57.15
-46.07
-34.70
-23.91
-13.92
-4.58
4.44
13.13
21.17
27.93
32.69
34.85
34.03
30.20
23.62
14.88
4.63
-6.60
-18.50
-30.88
-43.33
-54.94
-64.18
-69.35
-69.15
-63.53
-53.79
-42.22
-31.21
-22.31
-15.80
-10.85
-6.28
-1.28
4.09
9.02
12.40
13.27
11.26
6.57
-0.06
-7.60
-14.82
-20.37
-22.93
-21.52
-15.99
-7.29
2.53
10.93
15.72
15.98
12.47
7.34
3.15
1.85
4.11
9.20
15.55
21.54
26.02
28.51
28.98
27.50
24.07
18.76
11.98
4.57
-2.19
-6.96
-8.83
-7.61
-3.87
1.33
6.88
12.00
16.33
19.89
22.79
25.10
26.71
27.52
27.51
26.80
25.59
24.11
22.51
20.85
19.06
17.13
15.07
12.95
10.86
8.83
6.79
4.68
2.43
0.09
-2.22
-4.42
-6.55
-8.70
-10.92
-13.03
-14.57
-14.90
-13.51
-10.30
-5.66
-0.33
4.92
9.61
13.65
17.19
20.41
23.28
25.58
27.02
27.38
26.69
25.11
22.88
20.23
17.31
14.26
11.22
8.34
5.77
3.60
1.70
-0.18
-2.38
-5.17
-8.75
-13.06
-17.85
-22.68
-27.02
-30.30
-32.03
-31.91
-29.91
-26.32
-21.61
-16.39
-11.20
-6.39
-2.23
1.22
3.88
5.72
6.80
7.27
7.28
6.95
6.33
5.37
4.04
2.31
0.27
-1.89
-3.93
-5.59
-6.58
-6.70
-5.87
-4.26
-2.35
-0.83
-0.44
-1.64
-4.42
-8.21
-12.05
-14.91
-16.02
-15.10
-12.35
-8.25
-3.37
1.91
7.40
13.00
18.52
23.55
27.55
30.00
30.60
29.48
27.06
23.87
20.36
16.72
13.02
9.26
5.60
2.27
-0.59
-3.05
-5.37
-7.92
-10.87
-14.06
-17.14
-19.71
-21.60
-22.93
-23.83
-24.27
-23.83
-21.90
-17.95
-11.97
-4.64
2.84
9.11
13.18
14.67
14.16
12.92
12.62
14.70
19.84
27.65
36.69
45.01
50.74
52.85
51.28
46.98
41.43
36.29
33.01
32.54
35.21
40.42
46.79
52.31
54.96
53.31
47.02
36.92
24.66
12.43
2.21
-4.37
-6.38
-3.73
2.92
12.08
21.95
30.75
37.29
41.04
42.22
41.40
39.12
35.75
31.42
26.18
20.19
13.84
7.64
2.17
-2.08
-4.84
-5.98
-5.53
-3.67
-0.71
2.85
6.30
8.85
9.85
8.80
5.64
0.62
-5.72
-12.74
-19.87
-26.58
-32.46
-37.11
-40.32
-41.94
-42.14
-41.26
-39.80
-38.26
-37.10
-36.66
-37.12
-38.50
-40.59
-42.97
-45.05
-46.21
-46.03
-44.40
-41.53
-37.84
-33.87
-30.04
-26.66
-23.85
-21.59
-19.74
-18.07
-16.39
-14.60
-12.76
-11.03
-9.65
-8.81
-8.52
-8.63
-8.78
-8.45
-7.17
-4.61
-0.72
4.19
9.53
14.58
18.74
21.67
23.31
23.87
23.56
22.65
21.29
19.57
17.60
15.55
13.66
12.12
11.00
10.21
9.50
8.58
7.21
5.33
3.07
0.70
-1.50
-3.42
-5.12
-6.79
-8.71
-11.07
-13.94
-17.27
-20.82
-24.21
-27.03
-28.78
-29.10
-27.77
-24.91
-20.82
-16.01
-10.94
-5.91
-1.07
3.52
7.71
11.26
13.87
15.32
15.49
14.51
12.71
10.54
8.46
6.87
5.96
5.71
5.92
6.21
6.25
5.79
4.80
3.41
1.80
0.11
-1.51
-2.96
-4.17
-5.06
-5.60
-5.85
-5.90
-5.82
-5.65
-5.28
-4.60
-3.60
-2.30
-0.90
0.30
1.12
1.46
1.35
0.98
0.53
0.12
-0.24
-0.67
-1.36
-2.42
-3.77
-5.17
-6.21
-6.61
-6.27
-5.36
-4.31
-3.53
-3.22
-3.31
-3.55
-3.66
-3.54
-3.31
-3.20
-3.46
-4.25
-5.55
-7.25
-9.16
-11.04
-12.61
-13.55
-13.57
-12.47
-10.26
-7.14
-3.52
0.13
3.40
5.95
7.63
8.39
8.30
7.53
6.32
4.95
3.70
2.79
2.40
2.59
3.31
4.43
5.72
6.91
7.71
7.93
7.52
6.58
5.38
4.17
3.14
2.30
1.53
0.67
-0.43
-1.77
-3.15
-4.24
-4.62
-3.91
-1.97
1.07
4.84
8.80
12.43
15.35
17.43
18.69
19.19
19.01
18.18
16.81
15.04
13.05
10.98
8.89
6.77
4.57
2.35
0.25
-1.49
-2.77
-3.63
-4.33
-5.15
-6.24
-7.66
-9.25
-10.91
-12.62
-14.55
-16.87
-19.60
-22.47
-24.88
-26.15
-25.70
-23.41
-19.55
-14.75
-9.67
-4.77
-0.22
4.06
8.13
11.97
15.22
17.46
18.43
18.08
16.73
14.88
13.04
11.47
10.24
9.12
7.83
6.20
4.19
1.98
-0.13
-1.82
-2.94
-3.54
-3.89
-4.33
-5.19
-6.65
-8.63
-10.87
-12.92
-14.31
-14.61
-13.59
-11.29
-7.91
-3.93
0.13
3.82
6.86
9.11
10.55
11.14
10.86
9.75
7.99
5.93
3.99
2.58
1.86
1.69
1.76
1.70
1.31
0.56
-0.43
-1.49
-2.56
-3.67
-4.88
-6.17
-7.51
-8.84
-10.18
-11.67
-13.46
-15.66
-18.13
-20.52
-22.30
-22.97
-22.23
-20.12
-16.99
-13.41
-9.97
-7.10
-4.94
-3.42
-2.35
-1.51
-0.79
-0.19
0.21
0.42
0.51
0.68
1.11
1.85
2.84
3.89
4.84
5.59
6.18
6.71
7.27
7.81
8.21
8.32
8.06
7.47
6.63
5.58
4.26
2.63
0.76
-1.08
-2.48
-3.03
-2.43
-0.74
1.78
4.75
7.76
10.48
12.68
14.13
14.69
14.27
12.97
11.04
8.85
6.84
5.30
4.36
3.93
3.76
3.51
2.97
2.11
1.07
0.12
-0.50
-0.72
-0.62
-0.43
-0.44
-0.92
-2.00
-3.75
-6.03
-8.53
-10.79
-12.33
-12.66
-11.58
-9.14
-5.63
-1.60
2.39
5.83
8.35
9.82
10.28
9.94
9.07
7.93
6.66
5.43
4.30
3.26
2.28
1.25
0.01
-1.55
-3.40
-5.44
-7.40
-8.99
-10.05
-10.57
-10.72
-10.82
-11.24
-12.23
-13.92
-16.11
-18.42
-20.31
-21.28
-21.03
-19.56
-17.12
-14.05
-10.72
-7.35
-4.05
-0.98
1.74
3.93
5.55
6.69
7.55
8.38
9.32
10.34
11.20
11.70
11.69
11.19
10.32
9.17
7.82
6.27
4.63
3.02
1.60
0.41
-0.61
-1.71
-3.18
-5.14
-7.56
-10.11
-12.36
-13.85
-14.19
-13.23
-11.03
-7.95
-4.44
-1.05
1.81
3.89
5.21
5.95
6.43
6.95
7.67
8.60
9.59
10.46
11.04
11.32
11.32
11.15
10.86
10.47
9.93
9.20
8.22
7.03
5.67
4.21
2.70
1.15
-0.47
-2.24
-4.26
-6.62
-9.21
-11.80
-14.02
-15.40
-15.61
-14.50
-12.17
-8.90
-5.12
-1.20
2.49
5.65
8.08
9.68
10.44
10.41
9.78
8.76
7.60
6.51
5.65
5.10
4.83
4.74
4.74
4.71
4.56
4.27
3.79
3.10
2.24
1.24
0.20
-0.75
-1.52
-2.13
-2.67
-3.34
-4.34
-5.66
-7.14
-8.35
-8.76
-7.91
-5.63
-2.08
2.27
6.84
11.07
14.52
16.97
18.34
18.68
18.09
16.82
15.13
13.35
11.75
10.45
9.43
8.62
7.94
7.32
6.78
6.29
5.81
5.23
4.47
3.42
2.06
0.41
-1.52
-3.63
-5.82
-7.98
-9.92
-11.52
-12.65
-13.27
-13.34
-12.81
-11.53
-9.36
-6.24
-2.29
2.07
6.32
9.86
12.23
13.20
12.84
11.39
9.18
6.60
3.92
1.44
-0.62
-2.10
-2.91
-3.12
-2.90
-2.54
-2.33
-2.59
-3.55
-5.25
-7.58
-10.21
-12.86
-15.24
-17.33
-19.16
-20.92
-22.69
-24.40
-25.85
-26.66
-26.59
-25.46
-23.24
-20.01
-15.92
-11.15
-5.91
-0.44
4.97
9.96
14.16
17.37
19.52
20.78
21.38
21.63
21.68
21.60
21.39
21.05
20.66
20.26
19.87
19.34
18.50
17.18
15.39
13.31
11.17
9.10
6.99
4.58
1.47
-2.57
-7.59
-13.31
-19.23
-24.74
-29.21
-32.15
-33.21
-32.36
-29.81
-26.00
-21.46
-16.72
-12.21
-8.25
-5.01
-2.58
-0.95
-0.07
0.18
-0.06
-0.64
-1.44
-2.33
-3.17
-3.85
-4.28
-4.37
-4.10
-3.52
-2.72
-1.86
-1.10
-0.58
-0.39
-0.60
-1.21
-2.26
-3.76
-5.72
-8.09
-10.78
-13.70
-16.74
-19.71
-22.27
-23.92
-24.04
-22.07
-17.69
-11.09
-2.93
5.85
14.29
21.67
27.61
32.05
35.15
37.13
38.26
38.77
38.89
38.79
38.64
38.50
38.32
37.98
37.26
35.97
34.08
31.72
29.06
26.29
23.46
20.53
17.43
14.13
10.73
7.41
4.22
1.06
-2.33
-6.15
-10.41
-14.75
-18.55
-21.19
-22.22
-21.65
-19.76
-17.07
-13.99
-10.74
-7.28
-3.57
0.24
3.78
6.49
7.96
8.08
7.11
5.55
3.92
2.53
1.43
0.55
-0.20
-0.81
-1.36
-2.04
-3.13
-4.93
-7.48
-10.51
-13.47
-15.86
-17.58
-18.94
-20.65
-23.27
-26.89
-30.92
-34.19
-35.50
-34.11
-30.07
-24.21
-17.70
-11.57
-6.43
-2.40
0.69
2.91
4.07
3.88
2.17
-0.94
-4.89
-8.92
-12.21
-14.21
-14.64
-13.50
-10.93
-7.15
-2.50
2.57
7.60
12.22
16.29
19.85
23.05
25.97
28.39
29.93
30.12
28.68
25.73
21.75
17.46
13.59
10.61
8.66
7.64
7.28
7.25
7.31
7.36
7.40
7.59
8.15
9.27
11.01
13.04
14.62
14.78
12.67
8.05
1.62
-5.19
-10.66
-13.45
-13.10
-10.02
-5.17
0.44
6.13
11.64
16.83
21.45
25.07
27.16
27.40
25.87
23.03
19.49
15.91
12.64
9.86
7.56
5.74
4.44
3.81
3.93
4.70
5.79
6.64
6.69
5.52
3.08
-0.35
-4.19
-7.89
-11.09
-13.64
-15.60
-17.04
-17.98
-18.45
-18.50
-18.34
-18.26
-18.52
-19.21
-20.20
-21.18
-21.78
-21.82
-21.23
-20.23
-19.13
-18.28
-18.00
-18.52
-19.91
-22.10
-24.80
-27.58
-29.99
-31.72
-32.76
-33.31
-33.73
-34.13
-34.29
-33.65
-31.58
-27.80
-22.59
-16.66
-10.83
-5.59
-0.83
4.08
9.80
16.67
24.38
32.12
38.92
44.08
47.40
49.20
50.00
50.18
49.77
48.44
45.62
40.86
33.94
25.04
14.64
3.40
-8.01
-18.88
-28.59
-36.52
-42.11
-45.06
-45.43
-43.76
-40.92
-37.84
-35.06
-32.58
-29.83
-26.03
-20.70
-13.91
-6.32
1.10
7.56
12.65
16.37
18.93
20.52
21.14
20.73
19.39
17.46
15.49
13.95
13.10
12.86
12.94
12.98
12.70
11.93
10.58
8.64
6.19
3.48
0.97
-0.88
-1.66
-1.23
0.22
2.38
4.89
7.57
10.33
13.08
15.69
17.96
19.77
21.01
21.75
22.04
21.92
21.34
20.22
18.51
16.24
13.44
10.10
6.19
1.66
-3.38
-8.64
-13.74
-18.33
-22.34
-25.90
-29.26
-32.42
-35.16
-36.93
-37.09
-35.14
-30.85
-24.41
-16.26
-7.10
2.28
11.08
18.60
24.40
28.40
30.76
31.73
31.50
30.06
27.40
23.60
18.99
14.08
9.42
5.47
2.43
0.40
-0.73
-1.15
-1.28
-1.60
-2.52
-4.16
-6.21
-8.07
-9.05
-8.71
-7.07
-4.46
-1.39
1.66
4.29
6.16
6.94
6.42
4.58
1.75
-1.37
-3.96
-5.20
-4.51
-1.68
3.07
9.08
15.35
20.75
24.37
25.75
25.06
22.88
20.03
17.19
14.74
12.81
11.37
10.42
9.89
9.70
9.68
9.69
9.69
9.83
10.28
11.07
11.97
12.40
11.69
9.45
5.78
1.30
-3.16
-6.91
-9.73
-11.83
-13.70
-15.74
-18.07
-20.46
-22.51
-23.88
-24.26
-23.55
-21.63
-18.34
-13.58
-7.41
-0.19
7.32
14.16
19.42
22.52
23.35
22.33
20.17
17.65
15.36
13.62
12.42
11.54
10.57
9.07
6.66
3.14
-1.34
-6.32
-11.02
-14.60
-16.44
-16.40
-14.81
-12.35
-9.69
-7.21
-4.88
-2.36
0.70
4.46
8.70
12.96
16.78
19.91
22.42
24.53
26.49
28.32
29.85
30.79
30.91
30.09
28.27
25.37
21.19
15.48
8.10
-0.76
-10.48
-20.13
-28.71
-35.48
-40.10
-42.62
-43.42
-42.98
-41.73
-39.99
-37.98
-35.82
-33.57
-31.19
-28.57
-25.50
-21.82
-17.51
-12.73
-7.87
-3.39
0.36
3.11
4.71
5.04
3.95
1.30
-2.90
-8.36
-14.48
-20.37
-25.14
-28.03
-28.62
-26.81
-22.87
-17.23
-10.47
-3.16
4.13
10.92
16.89
21.94
26.26
30.23
34.34
38.88
43.82
48.73
52.88
55.53
56.18
54.71
51.45
46.98
41.86
36.48
30.89
24.90
18.19
10.57
2.13
-6.66
-15.04
-22.11
-27.12
-29.58
-29.36
-26.75
-22.31
-16.86
-11.33
-6.54
-3.10
-1.24
-0.82
-1.43
-2.54
-3.74
-4.80
-5.71
-6.59
-7.60
-8.81
-10.20
-11.74
-13.47
-15.49
-17.97
-20.94
-24.20
-27.28
-29.54
-30.36
-29.38
-26.67
-22.63
-17.86
-13.00
-8.53
-4.69
-1.51
1.15
3.59
6.07
8.72
11.48
13.98
15.67
16.07
14.98
12.70
9.96
7.63
6.26
5.77
5.41
3.99
0.32
-6.21
-15.36
-26.07
-36.70
-45.52
-51.09
-52.59
-49.85
-43.35
-33.95
-22.69
-10.62
1.39
12.64
22.59
30.85
37.24
41.73
44.51
45.96
46.46
46.34
45.74
44.61
42.86
40.48
37.56
34.29
30.79
27.08
23.21
19.31
15.72
12.81
10.88
9.91
9.56
9.35
8.82
7.83
6.53
5.21
4.08
3.09
1.90
0.17
-2.29
-5.32
-8.34
-10.64
-11.70
-11.47
-10.43
-9.37
-8.93
-9.34
-10.34
-11.47
-12.31
-12.84
-13.31
-14.08
-15.28
-16.72
-17.98
-18.64
-18.51
-17.71
-16.59
-15.55
-14.94
-14.94
-15.54
-16.58
-17.80
-18.92
-19.59
-19.51
-18.43
-16.27
-13.22
-9.85
-6.94
-5.28
-5.40
-7.33
-10.64
-14.68
-18.82
-22.71
-26.32
-29.75
-33.04
-36.16
-38.92
-41.18
-42.81
-43.75
-43.86
-42.94
-40.77
-37.33
-32.80
-27.55
-21.92
-16.07
-9.94
-3.39
3.57
10.66
17.37
23.08
27.32
29.90
30.86
30.47
29.08
27.05
24.81
22.73
21.06
19.82
18.85
17.80
16.37
14.42
12.10
9.89
8.33
7.83
8.48
9.98
11.78
13.29
14.08
13.99
13.10
11.61
9.83
8.09
6.73
6.12
6.51
7.94
10.09
12.37
14.06
14.68
14.13
12.85
11.58
11.12
11.94
14.00
16.74
19.26
20.61
20.13
17.57
13.10
7.24
0.64
-6.10
-12.40
-17.88
-22.22
-25.24
-26.93
-27.40
-26.86
-25.53
-23.64
-21.33
-18.68
-15.76
-12.65
-9.48
-6.39
-3.53
-0.98
1.22
3.08
4.66
5.98
7.06
7.89
8.45
8.73
8.76
8.63
8.45
8.20
7.75
6.89
5.33
2.90
-0.42
-4.54
-9.25
-14.29
-19.33
-23.95
-27.65
-29.93
-30.47
-29.17
-26.30
-22.32
-17.71
-12.83
-7.79
-2.57
2.92
8.66
14.52
20.20
25.35
29.66
32.89
34.99
36.02
36.11
35.36
33.78
31.32
27.97
23.89
19.40
15.06
11.41
8.87
7.62
7.61
8.61
10.36
12.52
14.74
16.65
17.92
18.36
18.03
17.17
16.09
14.95
13.64
11.85
9.25
5.82
1.96
-1.51
-3.74
-4.16
-2.80
-0.30
2.36
4.18
4.49
3.08
0.15
-3.89
-8.65
-13.79
-19.00
-23.97
-28.29
-31.62
-33.71
-34.52
-34.28
-33.43
-32.41
-31.62
-31.30
-31.41
-31.82
-32.31
-32.70
-32.95
-33.14
-33.49
-34.04
-34.69
-34.85
-33.74
-30.63
-25.25
-18.04
-10.11
-2.85
2.64
5.98
7.58
8.30
8.98
9.89
10.68
10.68
9.23
6.13
1.61
-3.71
-9.19
-14.23
-18.37
-21.28
-22.66
-22.30
-20.17
-16.51
-11.74
-6.44
-1.24
3.37
7.09
9.95
12.23
14.33
16.62
19.21
21.84
23.94
24.94
24.46
22.61
19.83
16.80
14.18
12.47
11.96
12.82
15.12
18.72
23.33
28.38
33.28
37.62
41.35
44.77
48.31
52.19
56.25
60.02
62.98
64.83
65.51
65.00
63.07
59.17
52.63
43.14
31.19
18.14
5.89
-3.77
-9.77
-11.93
-10.88
-7.67
-3.39
1.02
4.65
6.61
6.08
2.56
-3.85
-12.40
-21.78
-30.54
-37.50
-42.05
-44.15
-44.23
-42.94
-40.92
-38.79
-37.00
-35.75
-35.06
-34.76
-34.64
-34.60
-34.70
-35.12
-35.98
-37.23
-38.54
-39.51
-39.77
-39.21
-37.94
-36.23
-34.33
-32.42
-30.62
-29.04
-27.79
-26.86
-26.03
-24.87
-22.84
-19.60
-15.23
-10.31
-5.80
-2.69
-1.56
-2.45
-4.89
-8.14
-11.49
-14.38
-16.46
-17.63
-17.94
-17.57
-16.84
-16.08
-15.60
-15.52
-15.70
-15.83
-15.57
-14.69
-13.13
-10.98
-8.33
-5.25
-1.77
2.01
5.89
9.53
12.58
14.75
15.97
16.44
16.54
16.69
17.19
18.05
19.12
20.07
20.64
20.81
20.82
21.11
22.06
23.82
26.20
28.85
31.38
33.60
35.56
37.48
39.55
41.81
44.13
46.28
48.09
49.45
50.28
50.45
49.68
47.63
44.14
39.34
33.78
28.30
23.69
20.34
18.12
16.32
13.99
10.29
4.72
-2.71
-11.43
-20.56
-29.10
-36.14
-41.11
-43.86
-44.63
-43.87
-42.10
-39.76
-37.17
-34.65
-32.52
-31.08
-30.46
-30.56
-30.95
-31.11
-30.56
-29.19
-27.22
-25.17
-23.59
-22.74
-22.41
-21.95
-20.48
-17.28
-12.16
-5.63
1.24
7.14
11.10
12.78
12.56
11.31
10.02
9.42
9.75
10.80
12.06
12.87
12.65
10.99
7.73
2.98
-2.85
-9.15
-15.26
-20.55
-24.56
-27.05
-27.97
-27.37
-25.42
-22.33
-18.39
-14.04
-9.72
-5.85
-2.68
-0.18
1.85
3.77
5.85
8.23
10.83
13.51
16.02
18.16
19.80
20.91
21.58
21.90
21.98
21.78
21.20
20.08
18.36
16.12
13.55
11.00
8.86
7.60
7.65
9.41
13.06
18.43
24.97
31.72
37.62
41.74
43.48
42.68
39.60
34.84
29.19
23.54
18.61
14.93
12.70
11.82
11.87
12.24
12.26
11.30
8.93
4.96
-0.42
-6.65
-12.93
-18.43
-22.56
-25.15
-26.43
-26.94
-27.26
-27.83
-28.87
-30.34
-32.06
-33.86
-35.64
-37.32
-38.81
-39.89
-40.28
-39.67
-37.89
-34.93
-31.05
-26.67
-22.29
-18.36
-15.17
-12.82
-11.17
-9.94
-8.69
-7.02
-4.67
-1.61
1.95
5.70
9.27
12.40
14.89
16.63
17.46
17.21
15.70
12.77
8.55
3.38
-2.15
-7.37
-11.71
-14.87
-16.80
-17.68
-17.91
-17.85
-17.83
-17.98
-18.29
-18.51
-18.32
-17.32
-15.30
-12.31
-8.68
-4.88
-1.39
1.56
3.99
6.09
8.15
10.39
12.87
15.58
18.37
21.07
23.51
25.42
26.52
26.56
25.49
23.43
20.71
17.68
14.62
11.72
9.00
6.45
4.15
2.37
1.42
1.63
3.14
5.86
9.53
13.77
18.30
22.95
27.71
32.68
37.96
43.47
48.88
53.58
56.85
58.12
57.07
53.72
48.46
41.87
34.71
27.66
21.44
16.59
13.38
11.74
11.11
10.69
9.65
7.43
3.89
-0.76
-6.15
-11.97
-18.00
-24.06
-29.90
-35.19
-39.62
-43.00
-45.35
-46.89
-47.91
-48.60
-49.01
-49.06
-48.70
-47.96
-46.94
-45.73
-44.41
-42.93
-41.17
-38.96
-36.10
-32.52
-28.33
-23.77
-19.19
-14.87
-10.99
-7.55
-4.50
-1.84
0.37
2.07
3.33
4.42
5.66
7.33
9.42
11.62
13.49
14.67
14.95
14.30
12.74
10.31
7.13
3.43
-0.36
-3.71
-6.18
-7.58
-8.05
-7.96
-7.68
-7.39
-7.09
-6.65
-5.89
-4.77
-3.41
-2.04
-0.97
-0.43
-0.49
-1.02
-1.77
-2.42
-2.81
-2.96
-3.07
-3.40
-4.08
-5.05
-6.03
-6.70
-6.83
-6.46
-5.78
-5.00
-4.27
-3.57
-2.87
-2.12
-1.32
-0.48
0.52
1.87
3.79
6.38
9.48
12.71
15.63
17.92
19.60
20.96
22.40
24.16
26.12
27.88
28.94
28.96
27.96
26.28
24.41
22.75
21.44
20.38
19.38
18.36
17.36
16.44
15.62
14.73
13.46
11.56
8.93
5.73
2.25
-1.18
-4.38
-7.36
-10.23
-13.07
-15.74
-17.88
-19.02
-18.77
-17.06
-14.20
-10.68
-7.07
-3.68
-0.63
2.03
4.18
5.56
5.78
4.55
1.88
-1.92
-6.25
-10.46
-14.07
-16.75
-18.38
-18.96
-18.64
-17.64
-16.27
-14.84
-13.59
-12.69
-12.15
-11.88
-11.73
-11.55
-11.20
-10.70
-10.23
-10.03
-10.35
-11.22
-12.37
-13.25
-13.18
-11.68
-8.70
-4.62
-0.20
3.64
6.09
6.61
5.04
1.62
-3.03
-8.05
-12.45
-15.43
-16.59
-16.03
-14.31
-12.34
-10.99
-10.93
-12.32
-14.90
-18.07
-21.07
-23.26
-24.24
-23.92
-22.49
-20.30
-17.80
-15.46
-13.69
-12.74
-12.59
-12.92
-13.17
-12.76
-11.24
-8.42
-4.39
0.82
7.28
15.23
24.84
36.03
48.34
60.95
72.96
83.52
92.04
98.03
101.15
101.12
97.93
91.85
83.55
73.87
63.60
53.28
43.12
33.09
23.21
13.64
4.78
-2.85
-8.81
-12.94
-15.28
-16.13
-15.81
-14.63
-12.88
-10.85
-8.83
-7.04
-5.74
-5.04
-5.01
-5.57
-6.56
-7.78
-8.99
-10.00
-10.67
-11.01
-11.16
-11.38
-12.00
-13.28
-15.35
-18.13
-21.32
-24.43
-26.95
-28.45
-28.73
-27.85
-26.08
-23.81
-21.41
-19.26
-17.60
-16.52
-15.84
-15.20
-14.13
-12.29
-9.64
-6.45
-3.34
-0.94
0.41
0.78
0.60
0.49
0.96
2.18
4.07
6.27
8.36
9.97
10.81
10.63
9.29
6.78
3.30
-0.62
-4.28
-7.00
-8.39
-8.55
-7.98
-7.38
-7.26
-7.78
-8.68
-9.48
-9.69
-8.99
-7.31
-4.70
-1.28
2.76
7.07
11.13
14.33
16.15
16.47
15.56
14.00
12.51
11.58
11.34
11.65
12.13
12.39
12.14
11.22
9.71
7.83
5.92
4.25
3.08
2.55
2.82
4.09
6.55
10.28
15.08
20.40
25.54
29.82
32.70
33.87
33.25
30.88
27.02
22.21
17.25
12.98
10.01
8.36
7.48
6.57
4.91
2.22
-1.30
-5.19
-8.97
-12.40
-15.46
-18.21
-20.62
-22.61
-24.10
-25.11
-25.83
-26.50
-27.31
-28.25
-29.09
-29.57
-29.48
-28.74
-27.43
-25.68
-23.55
-21.03
-18.06
-14.65
-10.91
-7.12
-3.63
-0.77
1.21
2.22
2.31
1.63
0.50
-0.67
-1.37
-1.18
0.18
2.64
5.83
9.14
11.92
13.61
13.87
12.58
9.83
5.90
1.29
-3.34
-7.32
-10.15
-11.72
-12.27
-12.24
-12.07
-11.98
-11.99
-12.01
-11.96
-11.85
-11.73
-11.63
-11.52
-11.27
-10.67
-9.61
-8.00
-5.81
-3.15
-0.15
2.99
6.02
8.70
10.86
12.34
13.08
13.13
12.70
12.11
11.71
11.77
12.41
13.52
14.90
16.36
17.80
19.20
20.54
21.65
22.28
22.17
21.23
19.66
17.88
16.40
15.51
15.29
15.54
16.02
16.64
17.42
18.46
19.76
21.16
22.31
22.87
22.73
21.97
20.83
19.51
18.02
16.21
13.89
10.90
7.23
3.00
-1.56
-6.14
-10.42
-14.04
-16.79
-18.63
-19.78
-20.64
-21.73
-23.50
-26.12
-29.53
-33.46
-37.55
-41.41
-44.68
-47.01
-48.13
-47.91
-46.44
-43.94
-40.71
-36.96
-32.69
-27.83
-22.32
-16.34
-10.38
-5.02
-0.83
1.81
2.81
2.26
0.40
-2.46
-5.87
-9.29
-12.09
-13.66
-13.64
-11.96
-8.90
-4.93
-0.61
3.46
6.77
8.87
9.52
8.72
6.78
4.27
1.83
0.05
-0.71
-0.36
1.06
3.36
6.40
9.97
13.84
17.63
20.95
23.44
24.88
25.33
25.08
24.55
24.13
24.10
24.47
25.11
25.75
26.11
25.93
25.12
23.69
21.77
19.55
17.17
14.70
12.15
9.49
6.74
4.00
1.47
-0.68
-2.32
-3.40
-3.96
-4.05
-3.73
-3.06
-2.04
-0.72
0.87
2.61
4.35
5.88
7.01
7.55
7.41
6.59
5.15
3.23
1.02
-1.34
-3.72
-5.99
-8.09
-9.98
-11.60
-12.91
-13.86
-14.34
-14.33
-13.86
-13.05
-12.16
-11.48
-11.29
-11.77
-12.93
-14.62
-16.54
-18.36
-19.80
-20.67
-20.89
-20.44
-19.38
-17.83
-15.94
-13.94
-12.02
-10.29
-8.80
-7.47
-6.26
-5.13
-4.07
-3.05
-2.00
-0.83
0.58
2.23
4.07
5.96
7.75
9.36
10.74
11.86
12.66
13.06
13.03
12.65
12.08
11.56
11.21
11.02
10.85
10.44
9.60
8.20
6.30
4.07
1.78
-0.30
-1.87
-2.65
-2.39
-0.91
1.78
5.41
9.55
13.70
17.42
20.50
22.94
24.87
26.46
27.78
28.77
29.38
29.54
29.27
28.62
27.62
26.19
24.21
21.52
18.02
13.75
8.86
3.57
-1.87
-7.28
-12.49
-17.35
-21.67
-25.24
-27.87
-29.53
-30.38
-30.75
-30.95
-31.24
-31.62
-31.94
-31.96
-31.44
-30.31
-28.60
-26.37
-23.68
-20.54
-16.94
-12.90
-8.59
-4.26
-0.27
3.06
5.50
7.02
7.68
7.67
7.20
6.40
5.33
4.02
2.51
0.90
-0.61
-1.74
-2.21
-1.87
-0.79
0.78
2.46
3.94
5.00
5.60
5.82
5.68
5.19
4.24
2.79
0.91
-1.21
-3.30
-5.16
-6.73
-8.09
-9.35
-10.58
-11.68
-12.47
-12.82
-12.65
-12.06
-11.27
-10.48
-9.85
-9.35
-8.84
-8.15
-7.19
-6.03
-4.86
-3.94
-3.40
-3.24
-3.31
-3.43
-3.46
-3.38
-3.33
-3.48
-3.95
-4.77
-5.86
-7.12
-8.47
-9.77
-10.84
-11.44
-11.33
-10.33
-8.43
-5.84
-2.93
-0.15
2.13
3.78
4.85
5.55
6.12
6.67
7.17
7.47
7.42
6.96
6.23
5.44
4.77
4.29
3.89
3.36
2.55
1.50
0.34
-0.67
-1.32
-1.52
-1.30
-0.83
-0.27
0.23
0.52
0.49
0.01
-0.94
-2.29
-3.82
-5.20
-6.08
-6.20
-5.52
-4.18
-2.45
-0.67
0.94
2.28
3.32
4.07
4.49
4.51
4.06
3.25
2.26
1.37
0.79
0.59
0.70
1.01
1.46
2.02
2.72
3.49
4.17
4.48
4.25
3.47
2.36
1.24
0.40
-0.10
-0.40
-0.78
-1.52
-2.67
-4.06
-5.31
-6.01
-5.89
-4.92
-3.28
-1.31
0.65
2.37
3.77
4.82
5.55
5.95
6.02
5.79
5.41
5.08
4.94
5.06
5.33
5.59
5.66
5.42
4.87
4.03
2.96
1.64
0.08
-1.67
-3.51
-5.28
-6.79
-7.86
-8.39
-8.38
-7.96
-7.36
-6.76
-6.27
-5.85
-5.29
-4.34
-2.84
-0.75
1.78
4.45
6.92
8.93
10.32
11.05
11.17
10.81
10.17
9.40
8.65
8.00
7.47
7.08
6.82
6.64
6.52
6.47
6.50
6.66
7.00
7.58
8.42
9.47
10.45
11.04
10.85
9.55
7.10
3.70
-0.23
-4.16
-7.64
-10.45
-12.53
-13.94
-14.75
-14.99
-14.65
-13.79
-12.58
-11.17
-9.72
-8.30
-6.91
-5.55
-4.25
-3.14
-2.38
-2.11
-2.32
-2.90
-3.58
-4.13
-4.36
-4.17
-3.62
-2.79
-1.84
-0.88
-0.04
0.59
0.95
1.05
0.96
0.79
0.66
0.59
0.45
0.04
-0.82
-2.16
-3.84
-5.51
-6.85
-7.60
-7.71
-7.28
-6.53
-5.65
-4.80
-4.05
-3.41
-2.86
-2.29
-1.63
-0.82
0.12
1.06
1.85
2.37
2.61
2.70
2.78
2.91
3.03
3.01
2.68
1.99
1.04
0.04
-0.77
-1.30
-1.58
-1.80
-2.14
-2.69
-3.46
-4.35
-5.28
-6.20
-7.05
-7.74
-8.16
-8.06
-7.23
-5.55
-3.12
-0.26
2.58
4.96
6.66
7.65
8.06
8.06
7.75
7.09
6.06
4.70
3.18
1.78
0.77
0.20
0.04
0.01
-0.05
-0.25
-0.52
-0.72
-0.74
-0.57
-0.32
-0.15
-0.22
-0.59
-1.23
-2.02
-2.84
-3.63
-4.29
-4.78
-5.02
-4.92
-4.40
-3.48
-2.23
-0.79
0.74
2.29
3.81
5.29
6.63
7.69
8.38
8.66
8.59
8.29
7.89
7.47
7.03
6.51
5.83
4.93
3.79
2.47
1.07
-0.25
-1.35
-2.12
-2.50
-2.49
-2.19
-1.76
-1.48
-1.59
-2.23
-3.38
-4.79
-6.13
-7.05
-7.36
-6.98
-5.97
-4.42
-2.45
-0.21
2.09
4.23
6.01
7.30
8.11
8.55
8.79
9.01
9.27
9.54
9.76
9.77
9.49
8.88
8.05
7.17
6.42
5.90
5.57
5.27
4.80
3.98
2.71
1.06
-0.82
-2.69
-4.40
-5.88
-7.22
-8.55
-9.95
-11.36
-12.54
-13.19
-13.06
-12.07
-10.36
-8.20
-5.83
-3.46
-1.17
1.03
3.09
4.95
6.52
7.74
8.59
9.14
9.53
9.92
10.42
10.95
11.34
11.33
10.75
9.62
8.11
6.53
5.09
3.85
2.71
1.55
0.32
-0.90
-1.96
-2.73
-3.23
-3.59
-4.00
-4.64
-5.55
-6.62
-7.63
-8.23
-8.14
-7.17
-5.33
-2.83
-0.04
2.59
4.69
6.02
6.57
6.48
5.95
5.17
4.36
3.67
3.17
2.85
2.50
1.88
0.66
-1.36
-4.17
-7.47
-10.80
-13.64
-15.61
-16.59
-16.74
-16.36
-15.82
-15.38
-15.19
-15.16
-15.10
-14.84
-14.31
-13.64
-13.00
-12.50
-11.99
-11.19
-9.75
-7.43
-4.26
-0.49
3.49
7.35
10.80
13.68
15.87
17.32
17.99
17.99
17.49
16.71
15.92
15.35
15.10
15.21
15.54
15.86
15.91
15.54
14.72
13.59
12.38
11.26
10.23
9.10
7.67
5.76
3.48
1.12
-1.05
-2.91
-4.61
-6.50
-8.83
-11.57
-14.31
-16.45
-17.51
-17.35
-16.27
-14.78
-13.32
-12.05
-10.91
-9.68
-8.29
-6.83
-5.53
-4.60
-4.14
-3.99
-3.87
-3.58
-3.03
-2.27
-1.48
-0.83
-0.38
-0.11
0.09
0.35
0.68
1.00
1.15
1.03
0.60
-0.04
-0.74
-1.36
-1.85
-2.31
-2.88
-3.74
-4.98
-6.47
-7.88
-8.83
-8.91
-7.88
-5.69
-2.49
1.39
5.59
9.72
13.48
16.60
18.91
20.28
20.68
20.19
18.97
17.24
15.22
13.08
10.87
8.60
6.25
3.84
1.43
-0.85
-2.90
-4.63
-5.98
-6.85
-7.19
-6.96
-6.26
-5.30
-4.36
-3.70
-3.45
-3.63
-4.15
-4.82
-5.44
-5.78
-5.57
-4.61
-2.78
-0.17
2.91
6.07
8.98
11.48
13.54
15.25
16.69
17.80
18.52
18.81
18.71
18.44
18.24
18.29
18.62
19.04
19.25
18.92
17.85
16.07
13.80
11.34
9.02
7.03
5.41
4.08
2.87
1.60
0.19
-1.41
-3.15
-4.92
-6.59
-8.02
-9.11
-9.77
-9.93
-9.62
-8.92
-7.99
-7.09
-6.41
-6.08
-6.08
-6.26
-6.36
-6.18
-5.65
-4.87
-4.07
-3.48
-3.25
-3.35
-3.64
-3.91
-4.04
-4.01
-3.85
-3.61
-3.30
-2.92
-2.55
-2.29
-2.35
-2.88
-3.86
-5.06
-6.11
-6.64
-6.49
-5.79
-4.94
-4.51
-4.93
-6.28
-8.23
-10.13
-11.25
-11.09
-9.56
-7.02
-4.11
-1.45
0.51
1.64
2.01
1.82
1.23
0.43
-0.39
-1.08
-1.38
-1.21
-0.62
0.17
0.90
1.35
1.45
1.29
1.01
0.75
0.59
0.53
0.55
0.65
0.79
0.93
0.97
0.77
0.27
-0.54
-1.58
-2.67
-3.68
-4.50
-5.01
-5.10
-4.67
-3.59
-1.86
0.46
3.18
5.95
8.39
10.24
11.38
11.85
11.83
11.51
11.05
10.49
9.84
9.18
8.59
8.20
8.10
8.21
8.37
8.36
8.03
7.32
6.38
5.35
4.29
3.20
2.01
0.68
-0.74
-2.07
-3.15
-3.87
-4.27
-4.56
-4.98
-5.72
-6.83
-8.16
-9.39
-10.20
-10.30
-9.59
-8.09
-5.97
-3.45
-0.77
1.84
4.20
6.14
7.60
8.59
9.20
9.59
9.86
10.03
10.03
9.78
9.25
8.51
7.69
6.92
6.26
5.65
5.01
4.24
3.40
2.61
2.04
1.81
1.90
2.18
2.45
2.52
2.33
1.91
1.40
0.88
0.40
-0.04
-0.45
-0.79
-1.00
-1.01
-0.85
-0.61
-0.49
-0.58
-0.85
-1.16
-1.27
-1.06
-0.53
0.22
1.06
1.90
2.76
3.71
4.71
5.68
6.40
6.70
6.53
5.99
5.27
4.56
3.96
3.39
2.78
1.94
0.82
-0.52
-1.95
-3.31
-4.44
-5.26
-5.72
-5.79
-5.49
-4.82
-3.76
-2.38
-0.79
0.78
2.04
2.74
2.77
2.19
1.16
-0.15
-1.64
-3.31
-5.23
-7.37
-9.60
-11.66
-13.24
-14.17
-14.50
-14.44
-14.28
-14.25
-14.47
-14.91
-15.47
-16.02
-16.47
-16.82
-17.09
-17.35
-17.64
-18.01
-18.46
-18.94
-19.32
-19.46
-19.23
-18.48
-17.09
-15.03
-12.34
-9.16
-5.69
-2.19
1.04
3.72
5.77
7.25
8.28
9.09
9.75
10.31
10.68
10.83
10.73
10.50
10.21
9.90
9.46
8.74
7.69
6.36
4.99
3.86
3.13
2.81
2.76
2.79
2.75
2.66
2.57
2.55
2.58
2.53
2.20
1.53
0.57
-0.52
-1.51
-2.19
-2.46
-2.33
-1.93
-1.40
-0.82
-0.18
0.54
1.39
2.39
3.44
4.38
5.03
5.21
4.88
4.11
3.09
2.02
1.12
0.46
0.10
-0.01
0.08
0.33
0.69
1.10
1.51
1.80
1.88
1.71
1.31
0.74
0.08
-0.62
-1.31
-1.92
-2.40
-2.68
-2.73
-2.55
-2.24
-1.88
-1.57
-1.36
-1.15
-0.87
-0.43
0.15
0.73
1.09
1.11
0.74
0.09
-0.62
-1.20
-1.54
-1.68
-1.72
-1.76
-1.84
-1.92
-1.92
-1.78
-1.49
-1.13
-0.78
-0.56
-0.51
-0.59
-0.75
-0.93
-1.17
-1.60
-2.43
-3.75
-5.51
-7.44
-9.11
-10.09
-10.12
-9.14
-7.40
-5.27
-3.15
-1.39
-0.18
0.43
0.54
0.24
-0.40
-1.36
-2.65
-4.19
-5.81
-7.27
-8.26
-8.56
-8.09
-6.97
-5.42
-3.73
-2.11
-0.64
0.66
1.85
2.98
4.01
4.91
5.67
6.23
6.61
6.74
6.53
5.91
4.83
3.45
2.11
1.29
1.35
2.44
4.44
6.91
9.31
11.13
12.07
12.07
11.31
9.98
8.29
6.32
4.09
1.55
-1.29
-4.31
-7.37
-10.27
-12.86
-15.11
-17.07
-18.84
-20.46
-21.92
-23.16
-24.12
-24.82
-25.40
-26.04
-26.85
-27.84
-28.83
-29.58
-29.91
-29.79
-29.38
-28.84
-28.24
-27.45
-26.20
-24.19
-21.23
-17.41
-13.05
-8.51
-4.09
0.13
4.29
8.42
12.38
15.75
18.00
18.68
17.80
15.78
13.40
11.43
10.33
10.18
10.74
11.70
12.89
14.31
16.03
18.00
19.99
21.55
22.22
21.77
20.26
18.13
15.95
14.20
13.08
12.51
12.24
12.04
11.92
12.01
12.57
13.76
15.50
17.63
20.04
22.82
26.22
30.53
35.77
41.64
47.62
53.06
57.49
60.60
62.14
61.82
59.29
54.26
46.76
37.23
26.45
15.45
5.34
-2.92
-8.62
-11.37
-11.30
-8.98
-5.28
-1.07
2.96
6.38
8.77
9.58
8.17
4.03
-2.72
-11.05
-19.27
-25.66
-29.14
-29.75
-28.49
-26.80
-25.89
-26.36
-28.09
-30.54
-33.15
-35.53
-37.52
-39.03
-39.94
-40.05
-39.24
-37.63
-35.64
-33.84
-32.67
-32.13
-31.68
-30.29
-26.86
-20.58
-11.33
0.29
13.19
26.24
38.64
50.16
60.96
71.17
80.44
87.70
91.36
89.92
82.70
70.15
53.78
35.60
17.37
0.18
-15.57
-29.75
-42.16
-52.25
-59.32
-62.99
-63.51
-61.83
-59.24
-56.56
-53.57
-48.99
-41.05
-28.48
-11.43
8.33
28.00
44.98
57.85
66.83
73.37
79.17
85.23
91.43
96.64
99.18
97.53
90.60
78.03
60.20
38.23
13.79
-11.11
-34.46
-54.65
-70.59
-81.86
-88.66
-91.79
-92.41
-91.70
-90.36
-88.11
-83.82
-76.10
-64.40
-49.94
-35.71
-25.47
-22.03
-25.79
-34.40
-43.81
-50.11
-51.07
-46.80
-39.07
-30.15
-21.69
-14.50
-8.79
-4.75
-2.79
-3.32
-6.36
-11.18
-16.37
-20.24
-21.57
-19.97
-16.07
-11.25
-7.09
-4.75
-4.62
-6.21
-8.33
-9.56
-8.71
-5.12
1.26
9.97
20.21
31.05
41.54
50.89
58.60
64.48
68.55
70.82
71.04
68.52
62.32
51.64
36.40
17.62
-2.66
-21.89
-37.94
-49.57
-56.66
-59.90
-60.14
-57.97
-53.49
-46.58
-37.20
-25.83
-13.53
-1.66
8.44
15.85
20.21
21.72
20.92
18.42
14.73
10.19
5.12
-0.08
-4.82
-8.48
-10.54
-10.90
-9.98
-8.61
-7.85
-8.61
-11.50
-16.67
-23.78
-31.97
-39.93
-46.15
-49.22
-48.43
-44.01
-37.26
-29.96
-23.63
-18.92
-15.34
-11.65
-6.59
0.34
8.63
17.03
24.13
29.07
31.71
32.48
31.95
30.48
28.10
24.81
20.86
16.93
13.92
12.56
13.11
15.12
17.75
19.96
20.99
20.49
18.52
15.48
11.85
8.13
4.58
1.20
-2.25
-6.16
-10.77
-15.96
-21.16
-25.53
-28.15
-28.40
-25.99
-21.06
-14.16
-6.17
1.76
8.44
12.81
14.30
13.01
9.68
5.55
1.86
-0.50
-1.22
-0.52
0.99
2.66
3.99
4.70
4.82
4.57
4.37
4.73
6.24
9.38
14.40
21.12
28.79
36.32
42.36
45.86
46.22
43.60
38.80
33.12
28.09
25.05
24.96
28.09
33.91
41.03
47.47
51.10
50.24
44.17
33.31
19.11
3.54
-11.27
-23.60
-32.17
-36.30
-35.81
-31.14
-23.33
-13.87
-4.40
3.72
9.79
13.85
16.51
18.56
20.63
22.90
25.19
26.99
27.70
26.84
24.17
19.77
14.04
7.58
1.02
-5.12
-10.54
-15.22
-19.24
-22.76
-25.90
-28.69
-30.97
-32.48
-32.82
-31.73
-29.18
-25.44
-21.17
-17.05
-13.67
-11.28
-9.82
-8.92
-8.13
-6.91
-4.79
-1.50
2.93
8.07
13.05
16.83
18.75
18.76
17.51
16.09
15.32
15.48
16.03
15.98
14.38
10.85
5.69
-0.20
-5.63
-9.65
-11.66
-11.66
-10.08
-7.47
-4.32
-0.73
3.45
8.50
14.43
20.83
26.88
31.70
34.61
35.35
34.12
31.28
27.19
22.07
16.18
9.82
3.46
-2.39
-7.46
-11.67
-15.13
-17.84
-19.58
-19.74
-17.71
-13.28
-6.83
0.59
7.56
12.89
15.99
16.95
16.43
15.16
13.58
11.79
9.64
7.07
4.30
1.87
0.39
0.16
0.98
2.10
2.57
1.55
-1.30
-5.71
-10.93
-16.07
-20.42
-23.68
-25.96
-27.61
-28.99
-30.23
-31.12
-31.27
-30.23
-27.81
-24.12
-19.66
-15.08
-11.08
-8.17
-6.64
-6.37
-6.87
-7.33
-6.77
-4.44
-0.18
5.37
10.88
14.83
16.06
14.17
9.55
3.16
-3.92
-10.80
-16.83
-21.56
-24.48
-25.18
-23.42
-19.27
-13.24
-6.20
0.95
7.45
12.87
17.16
20.53
23.27
25.65
27.80
29.68
31.11
31.98
32.23
31.86
30.92
29.48
27.60
25.27
22.46
19.19
15.53
11.66
7.86
4.49
1.96
0.58
0.39
1.14
2.38
3.56
4.30
4.53
4.38
4.04
3.53
2.62
1.01
-1.36
-4.16
-6.68
-8.12
-7.99
-6.46
-4.25
-2.43
-1.94
-3.20
-6.04
-9.83
-13.75
-17.21
-19.95
-22.07
-23.80
-25.29
-26.43
-26.98
-26.70
-25.51
-23.70
-21.70
-19.88
-18.36
-16.94
-15.25
-13.05
-10.34
-7.29
-4.13
-0.88
2.60
6.46
10.49
14.15
16.62
17.30
16.12
13.78
11.49
10.45
11.31
13.85
17.10
19.85
21.23
21.06
19.87
18.52
17.73
17.90
19.03
20.96
23.39
25.77
27.09
25.88
20.81
11.41
-1.16
-14.20
-24.34
-28.88
-26.93
-19.66
-9.68
0.16
7.64
11.66
11.99
8.93
3.17
-4.23
-11.72
-17.61
-20.56
-20.30
-17.78
-14.81
-13.30
-14.42
-18.29
-23.96
-30.03
-35.00
-37.74
-37.53
-34.24
-28.32
-20.76
-13.02
-6.59
-2.61
-1.50
-2.95
-6.13
-9.91
-13.29
-15.48
-16.08
-15.06
-12.77
-9.81
-6.83
-4.27
-2.27
-0.67
0.91
2.75
4.92
7.19
9.14
10.30
10.30
9.02
6.53
3.05
-1.16
-5.85
-10.85
-16.02
-20.97
-25.09
-27.44
-26.98
-23.01
-15.45
-4.93
7.29
19.77
31.34
41.27
49.27
55.25
59.09
60.54
59.44
55.89
50.40
43.83
36.96
30.29
23.78
17.06
9.76
1.87
-6.06
-13.02
-17.84
-19.66
-18.20
-13.74
-7.03
1.10
9.93
18.90
27.47
35.06
40.98
44.61
45.68
44.30
41.03
36.62
31.69
26.54
21.20
15.50
9.37
2.93
-3.47
-9.22
-13.66
-16.06
-15.88
-12.95
-7.65
-0.98
5.61
10.68
13.19
12.93
10.51
7.16
4.22
2.65
2.86
4.64
7.33
10.04
11.87
12.02
9.88
5.15
-2.11
-11.36
-21.72
-32.16
-41.72
-49.70
-55.70
-59.66
-61.63
-61.72
-60.01
-56.56
-51.54
-45.33
-38.47
-31.60
-25.31
-19.92
-15.46
-11.74
-8.42
-5.24
-2.02
1.29
4.59
7.80
10.84
13.61
16.01
17.81
18.71
18.37
16.55
13.17
8.40
2.65
-3.63
-10.03
-16.19
-21.78
-26.41
-29.59
-30.98
-30.38
-27.99
-24.24
-19.72
-14.95
-10.30
-5.89
-1.65
2.55
6.90
11.45
16.17
20.84
25.04
28.33
30.40
31.20
31.01
30.33
29.59
29.03
28.63
28.12
27.17
25.57
23.30
20.63
17.97
15.63
13.66
11.78
9.45
6.20
1.88
-3.09
-7.86
-11.41
-13.03
-12.62
-10.70
-8.28
-6.40
-5.82
-6.83
-9.25
-12.57
-16.11
-19.34
-21.91
-23.84
-25.33
-26.65
-27.94
-29.21
-30.34
-31.26
-32.03
-32.73
-33.37
-33.79
-33.67
-32.66
-30.47
-26.97
-22.18
-16.27
-9.57
-2.62
3.88
9.18
12.69
14.26
14.21
13.18
11.84
10.61
9.42
7.76
4.96
0.46
-5.86
-13.54
-21.66
-29.06
-34.66
-37.80
-38.27
-36.26
-32.17
-26.44
-19.39
-11.24
-2.13
7.82
18.35
28.99
39.17
48.20
55.49
60.64
63.42
63.80
61.83
57.63
51.44
43.72
35.14
26.54
18.69
12.14
7.03
3.32
0.85
-0.33
0.01
2.20
6.44
12.63
20.30
28.61
36.60
43.20
47.47
48.61
46.13
40.01
30.87
19.96
8.95
-0.56
-7.50
-11.61
-13.53
-14.43
-15.52
-17.68
-21.10
-25.46
-30.22
-34.88
-39.29
-43.54
-47.81
-52.02
-55.82
-58.62
-59.98
-59.79
-58.28
-55.85
-52.78
-49.20
-45.10
-40.58
-35.84
-31.09
-26.23
-20.73
-13.82
-5.02
5.51
16.88
27.76
37.04
44.34
50.09
55.24
60.68
66.79
73.27
79.11
82.91
83.18
78.89
69.82
56.90
41.96
27.27
14.71
5.07
-2.09
-8.15
-14.59
-22.34
-31.39
-40.95
-49.90
-57.35
-62.86
-66.46
-68.42
-69.06
-68.71
-67.75
-66.64
-65.92
-65.97
-66.92
-68.39
-69.58
-69.49
-67.33
-62.70
-55.79
-47.26
-38.06
-29.09
-21.03
-14.23
-8.64
-3.92
0.44
4.88
9.66
14.67
19.54
23.80
27.10
29.35
30.74
31.61
32.19
32.53
32.42
31.49
29.43
26.16
21.83
16.88
11.87
7.34
3.72
1.26
-0.03
-0.18
0.65
2.29
4.50
6.96
9.21
10.69
10.90
9.49
6.54
2.44
-2.03
-6.00
-8.83
-10.25
-10.42
-9.73
-8.65
-7.38
-5.95
-4.24
-2.13
0.24
2.52
4.25
5.02
4.67
3.40
1.76
0.49
0.24
1.25
3.27
5.55
7.19
7.51
6.34
4.08
1.43
-0.88
-2.47
-3.40
-4.04
-4.91
-6.42
-8.71
-11.64
-14.76
-17.42
-18.96
-18.87
-16.94
-13.23
-8.15
-2.30
3.67
9.22
13.99
17.83
20.73
22.78
24.12
24.84
25.01
24.73
24.13
23.35
22.55
21.80
21.13
20.58
20.19
20.05
20.19
20.56
20.89
20.79
19.85
17.78
14.52
10.21
5.26
0.28
-4.01
-6.92
-7.93
-6.88
-4.12
-0.40
3.28
6.05
7.44
7.43
6.37
4.74
2.92
1.00
-1.12
-3.64
-6.70
-10.33
-14.44
-18.82
-23.19
-27.16
-30.29
-32.19
-32.57
-31.43
-29.00
-25.65
-21.82
-17.87
-13.94
-9.96
-5.61
-0.49
5.55
12.29
18.96
24.48
27.89
28.69
27.07
23.84
19.99
16.27
12.99
10.01
6.95
3.53
-0.30
-4.38
-8.40
-12.11
-15.33
-18.01
-20.13
-21.67
-22.48
-22.33
-21.02
-18.39
-14.48
-9.46
-3.61
2.78
9.36
15.82
21.86
27.13
31.37
34.32
35.84
35.90
34.52
31.90
28.36
24.29
20.11
16.25
13.05
10.85
9.96
10.61
12.82
16.23
20.06
23.24
24.86
24.36
21.78
17.69
12.89
8.12
3.84
0.25
-2.72
-5.12
-6.99
-8.41
-9.43
-10.13
-10.61
-11.03
-11.47
-12.07
-12.93
-14.07
-15.43
-16.73
-17.68
-17.91
-17.23
-15.65
-13.45
-11.06
-8.94
-7.41
-6.58
-6.41
-6.69
-7.10
-7.28
-6.82
-5.36
-2.73
0.85
4.75
8.06
9.90
9.77
7.71
4.28
0.33
-3.36
-6.29
-8.26
-9.36
-9.80
-9.80
-9.64
-9.56
-9.76
-10.34
-11.26
-12.34
-13.32
-13.86
-13.68
-12.64
-10.70
-8.04
-4.87
-1.32
2.63
7.21
12.67
19.03
26.00
32.92
38.89
43.17
45.31
45.28
43.32
39.80
35.16
29.92
24.79
20.63
18.22
17.93
19.49
21.99
24.16
24.91
23.67
20.61
16.40
11.95
8.04
5.19
3.60
3.24
3.93
5.32
6.93
8.19
8.55
7.55
4.97
0.87
-4.51
-10.72
-17.31
-23.92
-30.27
-36.12
-41.22
-45.27
-48.05
-49.48
-49.69
-49.03
-47.92
-46.62
-45.14
-43.26
-40.65
-37.13
-32.80
-28.06
-23.41
-19.29
-15.79
-12.60
-9.12
-4.86
0.31
5.91
10.95
14.42
15.74
15.13
13.44
11.76
10.85
10.75
10.90
10.46
8.87
6.07
2.50
-1.28
-4.80
-7.86
-10.45
-12.57
-14.20
-15.18
-15.37
-14.65
-12.95
-10.23
-6.52
-1.97
3.14
8.34
13.13
17.09
20.02
22.03
23.33
24.12
24.55
24.65
24.47
24.16
23.93
24.03
24.63
25.81
27.55
29.80
32.36
34.81
36.62
37.15
35.90
32.69
27.75
21.62
15.04
8.71
3.22
-0.96
-3.52
-4.36
-3.65
-1.81
0.57
2.90
4.76
5.92
6.21
5.42
3.22
-0.71
-6.51
-13.88
-22.02
-29.81
-36.09
-40.03
-41.44
-40.63
-38.38
-35.49
-32.64
-30.19
-28.27
-26.81
-25.60
-24.32
-22.52
-19.80
-15.99
-11.37
-6.65
-2.83
-0.75
-0.78
-2.55
-5.13
-7.40
-8.39
-7.68
-5.35
-1.97
1.66
4.76
6.77
7.37
6.47
4.28
1.13
-2.58
-6.35
-9.74
-12.41
-14.07
-14.62
-14.11
-12.68
-10.53
-7.92
-5.03
-1.94
1.33
4.81
8.48
12.12
15.47
18.20
20.05
21.04
21.40
21.52
21.82
22.57
23.88
25.78
28.25
31.28
34.86
38.71
42.32
45.03
46.21
45.55
43.10
39.13
34.02
28.11
21.66
15.04
8.84
3.82
0.68
-0.25
0.62
2.29
3.48
3.06
0.52
-3.96
-9.64
-15.60
-21.16
-26.07
-30.43
-34.45
-38.23
-41.60
-44.22
-45.81
-46.23
-45.65
-44.41
-42.88
-41.23
-39.51
-37.53
-35.16
-32.36
-29.20
-25.81
-22.32
-18.79
-15.18
-11.57
-8.09
-4.98
-2.51
-0.73
0.44
1.25
1.87
2.33
2.46
2.01
0.86
-0.94
-3.15
-5.53
-7.93
-10.45
-13.25
-16.48
-20.06
-23.64
-26.72
-28.80
-29.51
-28.71
-26.45
-22.92
-18.38
-13.04
-7.15
-0.96
5.32
11.47
17.28
22.58
27.22
31.06
34.07
36.28
37.81
38.80
39.43
39.79
39.93
39.86
39.51
38.85
37.97
37.19
36.99
37.87
40.01
43.20
46.66
49.27
49.86
47.61
42.33
34.53
25.31
15.95
7.66
1.25
-2.92
-4.95
-5.27
-4.46
-3.14
-1.89
-1.15
-1.21
-2.17
-3.98
-6.58
-9.95
-14.20
-19.37
-25.23
-31.21
-36.54
-40.39
-42.23
-42.04
-40.21
-37.41
-34.27
-31.21
-28.35
-25.67
-23.10
-20.70
-18.67
-17.28
-16.72
-16.96
-17.65
-18.20
-18.01
-16.61
-13.88
-10.03
-5.51
-0.89
3.26
6.39
8.06
7.97
6.15
2.99
-0.81
-4.38
-7.11
-8.80
-9.73
-10.46
-11.50
-13.06
-14.94
-16.72
-17.87
-17.87
-16.40
-13.29
-8.58
-2.61
3.99
10.45
15.99
20.09
22.57
23.55
23.37
22.45
21.27
20.30
19.96
20.49
21.93
24.00
26.40
29.02
32.06
35.94
40.90
46.59
51.93
55.36
55.47
51.57
44.09
34.35
23.99
14.42
6.51
0.51
-3.65
-6.13
-7.15
-7.04
-6.38
-5.98
-6.69
-9.02
-13.05
-18.34
-24.20
-29.91
-35.02
-39.38
-43.02
-45.95
-47.95
-48.64
-47.64
-44.79
-40.37
-35.11
-29.89
-25.43
-22.02
-19.48
-17.38
-15.26
-12.87
-10.18
-7.22
-4.01
-0.45
3.53
7.93
12.48
16.65
19.78
21.22
20.54
17.67
13.02
7.33
1.52
-3.64
-7.81
-11.17
-14.21
-17.43
-20.96
-24.44
-27.13
-28.20
-27.13
-23.85
-18.81
-12.76
-6.46
-0.47
4.92
9.69
13.85
17.40
20.25
22.23
23.26
23.38
22.91
22.23
21.74
21.67
22.11
22.95
24.00
25.06
25.91
26.33
26.19
25.42
24.13
22.56
20.92
19.20
17.15
14.29
10.18
4.78
-1.47
-7.62
-12.52
-15.28
-15.56
-13.65
-10.36
-6.72
-3.57
-1.46
-0.52
-0.65
-1.63
-3.30
-5.51
-8.10
-10.85
-13.37
-15.28
-16.27
-16.29
-15.58
-14.52
-13.56
-13.02
-13.02
-13.50
-14.25
-15.01
-15.51
-15.59
-15.25
-14.73
-14.38
-14.33
-14.41
-14.07
-12.61
-9.58
-5.13
0.02
4.78
8.26
9.99
10.03
8.76
6.59
3.82
0.75
-2.28
-4.78
-6.34
-6.83
-6.54
-6.14
-6.28
-7.37
-9.31
-11.54
-13.33
-14.10
-13.54
-11.71
-8.86
-5.30
-1.34
2.66
6.45
9.73
12.32
14.24
15.73
17.13
18.84
21.05
23.79
26.92
30.22
33.51
36.79
40.13
43.65
47.38
51.30
55.29
59.25
63.11
66.69
69.74
71.79
72.33
70.97
67.64
62.65
56.57
49.96
43.12
35.98
28.21
19.58
10.08
-0.00
-10.28
-20.40
-30.17
-39.48
-48.12
-55.79
-61.99
-66.22
-68.27
-68.25
-66.61
-64.00
-61.01
-58.00
-55.00
-51.74
-47.88
-43.13
-37.47
-31.21
-24.88
-19.08
-14.31
-10.86
-8.74
-7.82
-7.88
-8.68
-9.96
-11.44
-12.89
-14.09
-14.94
-15.45
-15.75
-15.99
-16.21
-16.39
-16.43
-16.28
-16.00
-15.78
-15.89
-16.53
-17.71
-19.25
-20.86
-22.27
-23.32
-24.00
-24.26
-24.05
-23.19
-21.41
-18.51
-14.48
-9.51
-4.00
1.54
6.66
11.03
14.50
17.10
18.88
19.95
20.44
20.45
20.12
19.62
19.16
18.88
18.83
18.93
19.02
19.04
19.00
19.14
19.75
21.12
23.32
26.15
29.19
31.95
34.00
35.05
34.95
33.64
31.06
27.26
22.53
17.35
12.49
8.74
6.66
6.34
7.42
9.15
10.70
11.37
10.70
8.46
4.65
-0.65
-7.25
-14.72
-22.48
-29.76
-35.74
-39.77
-41.56
-41.18
-39.09
-35.98
-32.49
-29.15
-26.29
-24.08
-22.59
-21.84
-21.70
-21.84
-21.74
-20.85
-18.78
-15.52
-11.40
-6.96
-2.65
1.29
4.82
7.96
10.57
12.35
12.99
12.39
10.69
8.34
5.85
3.53
1.37
-0.91
-3.72
-7.24
-11.35
-15.59
-19.34
-21.93
-22.94
-22.24
-19.95
-16.45
-12.18
-7.57
-2.97
1.37
5.37
9.04
12.53
15.98
19.43
22.71
25.48
27.32
27.91
27.21
25.54
23.60
22.27
22.38
24.52
28.75
34.56
40.83
46.17
49.19
48.95
45.17
38.33
29.53
20.23
11.88
5.53
1.71
0.23
0.34
0.96
0.95
-0.51
-3.74
-8.38
-13.60
-18.34
-21.71
-23.26
-23.23
-22.37
-21.64
-21.73
-22.80
-24.37
-25.65
-25.92
-24.82
-22.45
-19.26
-15.73
-12.19
-8.80
-5.61
-2.70
-0.28
1.42
2.25
2.21
1.48
0.28
-1.07
-2.31
-3.13
-3.33
-2.93
-2.21
-1.78
-2.32
-4.21
-7.31
-10.90
-13.98
-15.75
-15.95
-14.90
-13.30
-11.79
-10.69
-9.91
-9.12
-7.95
-6.17
-3.66
-0.44
3.45
7.84
12.50
17.12
21.35
24.94
27.74
29.75
31.08
31.87
32.28
32.41
32.32
31.94
31.21
29.99
28.28
26.14
23.71
21.27
19.08
17.36
16.22
15.59
15.14
14.39
12.88
10.36
6.88
2.85
-1.17
-4.61
-7.03
-8.30
-8.54
-8.05
-7.31
-6.85
-7.15
-8.49
-10.87
-14.05
-17.64
-21.15
-24.14
-26.21
-26.99
-26.20
-23.84
-20.23
-16.06
-12.19
-9.31
-7.64
-6.87
-6.34
-5.30
-3.37
-0.61
2.60
5.71
8.28
10.04
10.93
11.07
10.70
10.04
9.38
8.90
8.58
8.19
7.35
5.63
2.84
-0.85
-4.95
-8.75
-11.63
-13.26
-13.72
-13.43
-12.95
-12.81
-13.25
-14.19
-15.26
-15.99
-16.01
-15.06
-13.14
-10.35
-6.92
-3.05
1.06
5.30
9.57
13.80
17.97
22.00
25.78
29.14
31.85
33.62
34.31
34.02
33.07
32.04
31.48
31.77
32.80
34.05
34.65
33.82
31.15
26.73
21.13
15.14
9.54
4.85
1.31
-1.08
-2.46
-3.11
-3.45
-4.06
-5.58
-8.53
-13.10
-19.00
-25.45
-31.46
-36.12
-38.87
-39.67
-38.92
-37.24
-35.20
-33.15
-31.14
-29.10
-26.89
-24.49
-22.11
-20.06
-18.61
-17.78
-17.24
-16.35
-14.48
-11.26
-6.85
-1.94
2.48
5.52
6.69
6.11
4.29
1.86
-0.70
-3.19
-5.71
-8.38
-11.34
-14.58
-17.95
-21.22
-24.16
-26.52
-28.08
-28.67
-28.10
-26.27
-23.18
-18.93
-13.74
-7.90
-1.70
4.59
10.67
16.23
21.04
24.92
27.94
30.34
32.49
34.68
36.91
38.95
40.31
40.50
39.26
36.73
33.28
29.52
26.04
23.27
21.49
20.78
20.99
21.82
22.90
23.77
24.09
23.72
22.67
21.02
18.76
15.66
11.42
5.84
-0.86
-7.95
-14.36
-19.04
-21.37
-21.40
-19.85
-17.70
-15.95
-15.21
-15.59
-16.83
-18.41
-19.68
-20.18
-19.73
-18.49
-17.02
-15.90
-15.54
-15.92
-16.55
-16.74
-15.95
-14.11
-11.60
-9.06
-6.94
-5.35
-4.05
-2.75
-1.29
0.12
1.11
1.45
1.23
0.83
0.72
1.08
1.79
2.50
2.97
3.19
3.50
4.20
5.34
6.56
7.23
6.69
4.53
0.77
-4.18
-9.63
-14.84
-19.06
-21.87
-23.10
-22.90
-21.66
-19.79
-17.64
-15.45
-13.40
-11.63
-10.19
-9.00
-7.73
-5.93
-3.14
0.81
5.77
11.30
16.87
22.06
26.62
30.48
33.65
36.11
37.77
38.52
38.26
37.05
35.08
32.62
30.07
27.69
25.71
24.15
22.90
21.76
20.60
19.31
17.80
15.90
13.30
9.72
4.98
-0.78
-7.06
-13.10
-18.13
-21.66
-23.65
-24.44
-24.59
-24.65
-24.93
-25.48
-26.13
-26.61
-26.67
-26.24
-25.40
-24.32
-23.16
-21.98
-20.62
-18.90
-16.62
-13.76
-10.47
-7.14
-4.19
-1.92
-0.49
0.21
0.35
0.09
-0.49
-1.35
-2.43
-3.63
-4.78
-5.78
-6.63
-7.41
-8.21
-9.07
-9.88
-10.48
-10.76
-10.74
-10.55
-10.38
-10.41
-10.71
-11.33
-12.32
-13.71
-15.48
-17.51
-19.54
-21.29
-22.46
-22.85
-22.25
-20.54
-17.65
-13.59
-8.52
-2.75
3.30
9.18
14.51
19.07
22.73
25.46
27.22
28.09
28.12
27.50
26.41
25.10
23.77
22.46
21.11
19.51
17.57
15.32
13.06
11.19
10.07
9.88
10.54
11.77
13.31
14.99
16.84
18.87
20.93
22.58
23.16
22.06
19.09
14.62
9.50
4.69
0.96
-1.44
-2.78
-3.56
-4.27
-5.14
-6.20
-7.48
-9.10
-11.26
-14.10
-17.46
-20.84
-23.58
-25.12
-25.29
-24.34
-22.76
-20.99
-19.22
-17.30
-14.92
-11.86
-8.20
-4.34
-0.78
2.03
3.93
5.06
5.74
6.34
7.06
7.86
8.48
8.52
7.59
5.51
2.37
-1.29
-4.60
-6.59
-6.51
-4.22
-0.36
3.87
7.14
8.53
7.89
5.72
2.80
-0.23
-3.14
-6.03
-8.96
-11.85
-14.26
-15.81
-16.36
-16.20
-15.85
-15.77
-16.09
-16.51
-16.52
-15.66
-13.78
-11.08
-7.97
-4.86
-1.99
0.57
2.93
5.24
7.60
9.98
12.28
14.34
16.03
17.30
18.17
18.76
19.20
19.58
19.87
20.04
19.98
